q_AgBehenateLaB6_0059_C	r_AgBehenateLaB6_0059_C	s_AgBehenateLaB6_0059_C	w_AgBehenateLaB6_0059_C
1.9320509	890.35022	22.37908	0.010072513
1.9345683	897.34705	10.374136	0.010071973
1.9370856	892.34814	8.1226435	0.010071433
1.939603	900.60229	6.8223619	0.010070886
1.9421203	897.09149	6.0936441	0.010070355
1.9446377	897.28479	4.8908048	0.010069747
1.947155	901.23749	4.2117958	0.010069208
1.9496723	906.72266	3.9244833	0.010068669
1.9521897	914.94495	3.7480013	0.01006807
1.9547069	924.5647	3.2242458	0.01006753
1.9572242	925.07861	3.3432136	0.010067049
1.9597416	926.09137	3.0352931	0.010066443
1.9622589	925.86133	2.4565563	0.010065844
1.9647763	920.3338	2.2267914	0.010065305
1.9672936	909.91089	2.5810089	0.010064765
1.969811	902.06763	2.3365736	0.010064166
1.9723283	888.62256	1.9688201	0.010063619
1.9748456	877.96448	2.2017186	0.010063021
1.977363	866.04309	1.8374104	0.010062473
1.9798802	852.26904	1.3024683	0.010061934
1.9823976	834.04584	1.4244871	0.010061393
1.9849149	827.00226	0.60974604	0.010060795
1.9874322	821.96307	1.1842921	0.010060255
1.9899496	812.66229	1.1093707	0.010059657
1.9924669	806.50464	1.1096536	0.010059109
1.9949843	800.76312	1.1494584	0.01005857
1.9975016	798.78851	0.92838746	0.010057911
2.0000188	801.28821	0.53915405	0.010057431
2.0025363	796.55988	0.8926512	0.010056766
2.0050535	797.35327	0.91984266	0.010056174
2.007571	796.51398	1.0455804	0.010055686
2.0100882	796.76111	1.0116605	0.010055095
2.0126057	796.49548	0.7987501	0.010054489
2.0151229	793.79626	0.5857287	0.010053882
2.0176401	795.71002	0.58815008	0.010053394
2.0201576	792.08276	0.63538003	0.010052788
2.0226748	792.33386	0.36075601	0.010052197
2.0251923	791.49353	0.35170501	0.010051724
2.0302269	792.46417	0.29189914	0.010050393
2.0327442	788.61902	0.46887824	0.010049905
2.0352616	785.90527	0.54455644	0.010049313
2.0377789	783.62219	0.22961561	0.010048707
2.0402961	780.75934	0.81326026	0.010048234
2.0428135	779.43195	1.3029103	0.010047524
2.0453308	773.78467	0.54890001	0.010046918
2.0478482	774.60651	0.38101289	0.01004643
2.0503654	774.45361	0.64578587	0.010045824
2.0528829	774.03961	0.42614925	0.010045232
2.0554001	771.63409	0.60708338	0.010044626
2.0579176	762.81317	0.5415954	0.010044035
2.0604348	759.76752	0.30586779	0.010043428
2.0629523	760.21259	2.2102578	0.010042955
2.0654695	749.16046	0.7950815	0.010042216
2.0679867	743.46478	1.0965636	0.010041624
2.0705042	742.80591	0.62665099	0.010041136
2.0730214	738.80115	0.04914711	0.01004053
2.0755389	736.31635	0.57200086	0.010039939
2.0780561	738.00751	0.19330627	0.010039348
2.0805736	739.21747	1.9938409	0.010038741
2.0830908	739.18359	0.66847795	0.010038135
2.0856082	741.21423	0.59711617	0.010037662
2.0881255	743.44421	0.74073762	0.010036937
2.0906427	746.4082	0.4327586	0.010036331
2.0931602	746.55359	0.23963825	0.010035858
2.0956774	746.89343	0.84015483	0.010035251
2.0981948	748.78528	0.97417104	0.010034527
2.1007121	748.36859	0.72878003	0.010033936
2.1032295	746.60059	0.60931265	0.010033329
2.1057467	741.75989	0.62669492	0.010032739
2.1082642	744.69171	0.62843418	0.010032251
2.1107814	743.49469	0.3542009	0.010031526
2.1132987	746.05035	0.69606626	0.010031053
2.1158161	752.16443	0.91491306	0.010030447
2.1183333	755.06274	0.29705897	0.010029737
2.1208508	759.92395	0.55437791	0.010029131
2.123368	766.24176	0.8302182	0.010028524
2.1258855	779.46838	0.85862124	0.010027918
2.1284027	810.43115	1.4068137	0.010027327
2.1309202	860.38287	3.0340309	0.01002672
2.1334374	963.65332	6.291039	0.010026129
2.1359549	1197.0116	16.621891	0.010025508
2.1384721	1904.5809	53.58271	0.010024916
2.1409893	4935.4497	475.93927	0.010024207
2.1435068	11147.248	1773.4291	0.010023719
2.146024	13935.302	1312.8671	0.010023112
2.1485415	17654.848	3065.5322	0.010022388
2.1510587	8316.5908	608.93909	0.010021796
2.1535761	3904.01	289.69748	0.01002119
2.1560934	2266.4287	255.01125	0.010020584
2.1586108	1227.5426	32.279617	0.010019992
2.161128	935.0929	8.773571	0.010019386
2.1636453	833.99969	3.8062294	0.010018677
2.1661627	783.03802	1.8342074	0.010018189
2.16868	761.55902	1.0843942	0.010017582
2.1711974	745.99701	0.59097713	0.010016991
2.1737146	736.0224	0.73741114	0.010016266
2.1762321	729.35999	0.42035353	0.01001566
2.1787493	723.51868	0.66347182	0.010015054
2.1812668	717.79169	0.47015616	0.010014462
2.183784	713.72028	0.45622352	0.010013856
2.1863012	709.27063	0.45832255	0.010013146
2.1888187	707.60651	0.95055676	0.01001254
2.1913359	706.00037	0.40925956	0.010011934
2.1938534	709.42731	0.55129945	0.010011342
2.1963706	712.43341	0.62216043	0.010010736
2.1988881	714.63892	0.22213498	0.010010011
2.2014053	716.93109	0.47702974	0.010009405
2.2039227	717.67255	0.49502027	0.010008814
2.20644	722.47241	0.63470715	0.010008208
2.2089574	724.57947	0.87649727	0.010007498
2.2114747	726.25323	0.46083152	0.01000701
2.2139919	728.98474	0.55708146	0.010006301
2.2165093	724.92572	0.76389802	0.010005679
2.2190266	723.31982	0.82651138	0.010005088
2.221544	715.74902	0.58928746	0.010004481
2.2240613	712.94092	0.76665223	0.010003757
2.2265787	706.56506	0.66216427	0.010003165
2.2290959	701.32068	1.3215722	0.010002559
2.2316134	697.53119	1.4108338	0.01000185
2.2341306	694.51471	0.70663953	0.010001228
2.2366478	693.42279	0.72890472	0.010000534
2.2391653	692.80945	0.69547606	0.0099999281
2.2416825	692.79742	0.79084218	0.0099994242
2.2442	692.79852	0.57448179	0.0099987304
2.2467172	691.38104	0.69271421	0.00999799
2.2492347	694.22827	0.6142121	0.0099973995
2.2517519	692.80029	0.5028367	0.009996675
2.2542694	690.78644	0.59281242	0.009996186
2.2567866	689.85187	0.30546141	0.0099954773
2.2593038	689.04639	0.32594365	0.009994871
2.2618213	688.76654	0.49299109	0.0099941464
2.2643385	686.08533	1.3372767	0.0099935401
2.266856	690.47369	1.1798446	0.0099929487
2.2693732	692.41693	1.0948035	0.0099923424
2.2718906	695.97223	1.4255735	0.0099916179
2.2744079	697.50623	0.83920783	0.0099909082
2.2769253	701.62244	0.33735225	0.0099903019
2.2794425	703.33258	0.6763978	0.0099896956
2.28196	708.7558	0.74822915	0.009988986
2.2844772	708.77112	0.74409032	0.0099883797
2.2869945	709.01038	0.75742662	0.0099877883
2.2895119	710.64673	0.38580519	0.0099870488
2.2920291	709.32001	0.94704103	0.0099864574
2.2945466	712.53583	0.78851557	0.0099857328
2.2970638	707.81506	0.37166804	0.0099851415
2.2995813	710.47308	0.45135823	0.0099844169
2.3020985	713.64545	0.55423343	0.0099838106
2.304616	715.54504	0.3743915	0.0099831009
2.3071332	722.48364	0.29599193	0.0099824797
2.3096504	723.81085	0.80922067	0.0099818883
2.3121679	729.44604	0.31996307	0.0099811787
2.3146851	741.96161	0.30509171	0.0099804392
2.3172026	755.29718	0.49795687	0.0099798478
2.3197198	763.28571	0.51984	0.0099792415
2.3222373	770.93219	0.52014178	0.0099786352
2.3247545	775.13129	0.59717518	0.0099779256
2.3272719	778.59357	0.19349188	0.0099773193
2.3297892	773.77893	0.50512493	0.0099765947
2.3323064	776.38818	0.33128408	0.009975885
2.3348238	778.18506	0.3431941	0.0099752788
2.3373411	784.73822	0.9330551	0.0099745542
2.3398585	790.14209	0.71085131	0.0099738445
2.3423758	794.95886	0.95415568	0.0099732233
2.3448932	798.75061	0.6482923	0.0099727502
2.3474104	810.42065	0.67575568	0.0099719074
2.3499279	819.97852	0.89458209	0.009971316
2.3524451	830.26825	0.959337	0.0099705914
2.3549626	841.77246	0.98970127	0.0099698668
2.3574798	845.26959	0.36306185	0.0099692764
2.359997	843.4527	0.67247456	0.0099686692
2.3625145	838.19336	0.45199183	0.0099679446
2.3650317	829.02771	0.61531538	0.00996722
2.3675492	826.59698	0.51801687	0.0099666296
2.3700664	834.07715	0.48366508	0.0099657867
2.3725839	849.29706	1.1417176	0.0099651795
2.3751011	876.39093	0.95291781	0.0099644708
2.3776186	900.86542	0.90830266	0.0099638645
2.3801358	912.20435	0.53063267	0.0099631399
2.382653	909.60968	0.51572138	0.0099624153
2.3851705	894.49805	0.26089919	0.0099618081
2.3876877	870.91437	0.14193369	0.0099610994
2.3902051	852.83295	0.17861581	0.0099604931
2.3927224	836.77917	0.28026021	0.0099597685
2.3952398	820.44305	2.2741246	0.0099590588
2.3977571	801.91418	2.4897442	0.0099584525
2.4002745	780.14441	1.5698141	0.0099578612
2.4027917	753.00604	0.57540786	0.0099571217
2.405309	735.55554	0.77008235	0.009956412
2.4078264	726.93768	0.6541447	0.0099556874
2.4103436	718.74786	0.84069747	0.0099549629
2.4128611	713.52698	1.4088814	0.0099543566
2.4153783	705.30518	0.56499702	0.0099536469
2.4178958	701.65857	0.66659027	0.0099529224
2.420413	696.48846	0.62088966	0.009952331
2.4229305	696.8222	0.46799234	0.0099515915
2.4254477	691.99762	0.61251885	0.0099509852
2.4279652	692.48627	0.98563504	0.0099502755
2.4304824	693.71814	0.65513247	0.0099495659
2.4329996	692.03113	0.7541613	0.0099488413
2.4355171	692.74524	0.83723193	0.009948235
2.4380343	694.29663	0.53140211	0.0099474071
2.4405518	692.11255	0.76492339	0.0099468008
2.443069	692.20844	0.66235799	0.0099460613
2.4455864	687.98401	0.77589822	0.0099454699
2.4481037	687.1911	0.23298013	0.0099446271
2.4506211	686.36768	0.59917593	0.0099440357
2.4531384	687.46588	0.41428018	0.0099433111
2.4556556	689.01715	0.6011548	0.0099425865
2.458173	690.80432	0.73594469	0.0099419802
2.4606903	694.07379	0.715195	0.0099411374
2.4632077	701.40588	0.7028569	0.009940546
2.4657249	705.65186	0.43792304	0.0099397032
2.4682424	713.88849	0.54116571	0.0099390969
2.4707596	720.06622	0.58126676	0.0099383723
2.4732771	735.35297	0.11386918	0.009937766
2.4757943	741.12048	0.58486366	0.0099369381
2.4783115	739.20557	0.90576464	0.0099363318
2.480829	737.24646	1.4274069	0.0099356072
2.4833462	725.23199	0.80103016	0.0099348826
2.4858637	713.26813	0.93103576	0.0099342912
2.4883809	709.203	4.1270099	0.0099334484
2.4908984	700.89069	1.3538529	0.0099328579
2.4934156	689.83545	0.60818505	0.0099321334
2.4959331	690.47748	0.61798602	0.0099314079
2.4984503	689.21484	0.30744967	0.0099305809
2.5009677	691.43146	1.2363802	0.0099298563
2.503485	684.6922	0.43502679	0.0099292342
2.5060022	686.12933	0.8964113	0.0099285254
2.5085196	687.28137	0.62229341	0.0099278158
2.5110369	689.5011	0.61434335	0.0099270912
2.5135543	689.04553	0.39140564	0.0099263508
2.5160716	689.22461	0.45654762	0.0099256421
2.518589	680.99493	0.27395576	0.0099249175
2.5211062	677.14459	0.98830491	0.0099243112
2.5236237	669.84778	0.39189777	0.0099234683
2.5261409	662.93854	0.59491718	0.0099228611
2.5286582	657.11993	0.59234113	0.0099220341
2.5311756	655.26068	0.52836823	0.0099214427
2.5336928	654.42175	0.50694817	0.0099207181
2.5362103	652.72888	0.48639244	0.0099199787
2.5387275	657.11224	0.44074458	0.009919269
2.541245	658.05145	0.33177549	0.0099185444
2.5437622	660.35181	0.5723539	0.0099177165
2.5462797	669.43317	0.52684987	0.0099171102
2.5487969	678.29022	0.2569966	0.0099162674
2.5513144	686.42749	0.89491498	0.0099156611
2.5538316	693.83795	0.48437774	0.0099148331
2.5563488	695.76648	0.32551607	0.0099142268
2.5588663	702.1839	0.56106931	0.009913384
2.5613835	698.41663	0.46828473	0.0099126594
2.5639009	694.30176	0.45723823	0.0099120531
2.5664182	686.3808	0.66657215	0.0099113435
2.5689356	683.9873	0.56151688	0.009910604
2.5714529	684.13721	0.58904397	0.009909776
2.5739703	682.79248	0.5822711	0.0099090664
2.5764875	683.09808	0.53752589	0.0099083269
2.5790048	682.3783	0.66697252	0.0099076023
2.5815222	678.45728	0.41372842	0.0099068927
2.5840394	673.31757	0.61155415	0.0099061681
2.5865569	673.19891	0.74761426	0.0099054435
2.5890741	668.84369	0.55675602	0.009904719
2.5915916	667.09552	0.67037618	0.0099040093
2.5941088	667.14539	0.73077881	0.0099032847
2.5966263	669.98615	0.56147093	0.0099025602
2.5991435	667.84485	0.58738399	0.0099017331
2.6016607	668.17584	0.51848352	0.0099010086
2.6041782	674.72382	0.71372455	0.0099002831
2.6066954	677.63739	0.58976781	0.0098995585
2.6092129	682.88287	0.71364033	0.0098988339
2.6117301	697.45245	1.2185618	0.0098979911
2.6142476	728.62299	3.1929986	0.0098972823
2.6167648	804.02631	9.3570633	0.0098965578
2.6192822	1139.4215	79.960701	0.0098958332
2.6217995	2028.9747	227.19179	0.0098951235
2.6243169	2780.2163	137.69151	0.0098943831
2.6268342	4987.644	551.60449	0.0098935403
2.6293514	5126.0366	347.80188	0.009892934
2.6318688	4191.1812	264.76105	0.0098922253
2.6343861	4473.1426	1126.8883	0.0098913973
2.6369035	1941.2168	180.61549	0.0098906578
2.6394207	1209.6957	132.19147	0.0098899323
2.6419382	833.20197	12.652377	0.0098891053
2.6444554	753.01056	5.0303311	0.009888499
2.6469729	718.28943	2.4414206	0.0098876711
2.6494901	708.33704	2.4678555	0.0098869316
2.6520073	720.74164	11.095185	0.0098860888
2.6545248	743.81012	21.329517	0.0098853791
2.657042	706.84387	3.3768625	0.0098846545
2.6595595	702.71503	1.0938013	0.00988393
2.6620767	709.1507	0.77746701	0.0098830871
2.6645942	709.18115	0.50732541	0.0098823775
2.6671114	702.22937	0.64877647	0.0098816529
2.6696289	700.36554	0.73309076	0.0098809283
2.6721461	686.55035	0.49066421	0.0098802038
2.6746633	674.64514	0.86604613	0.0098794792
2.6771808	668.81018	1.8881541	0.0098786363
2.679698	656.80341	0.6430099	0.0098777935
2.6822155	651.96942	0.61072099	0.0098770838
2.6847327	646.2251	0.4611516	0.0098763742
2.6872501	645.79651	0.60706896	0.0098755313
2.6897674	646.1062	0.53598303	0.0098747918
2.6922848	644.56512	0.6674965	0.0098740822
2.694802	646.50537	0.50072616	0.0098733576
2.6973195	646.20386	0.65461838	0.009872633
2.6998367	651.38885	0.7121883	0.0098717902
2.702354	652.27246	0.81647497	0.0098709473
2.7048714	651.99615	0.61887604	0.009870341
2.7073886	651.81018	0.72438955	0.0098695131
2.7099061	651.2475	0.64397442	0.0098687885
2.7124233	647.19769	0.52817863	0.0098679457
2.7149408	649.00433	0.71065122	0.0098672211
2.717458	646.83185	1.4319724	0.0098663941
2.7199755	642.58936	0.59031355	0.0098656695
2.7224927	639.24908	0.75304174	0.0098648267
2.7250099	637.29865	0.45607424	0.0098641012
2.7275274	636.18634	0.75237083	0.0098633924
2.7300446	640.07422	0.81697845	0.009862652
2.7325621	640.99225	0.68908513	0.009861825
2.7350793	644.92694	0.5977453	0.0098611005
2.7375968	649.12408	0.85778362	0.0098603759
2.740114	656.64075	0.76438385	0.009859548
2.7426314	664.1933	0.58712649	0.0098586902
2.7451487	671.69794	0.7035411	0.0098579647
2.7476659	681.7843	0.49364281	0.009857256
2.7501833	684.45605	0.982099	0.0098564131
2.7527006	688.47058	0.66777915	0.0098555703
2.755218	691.29193	0.46077564	0.0098548457
2.7577353	691.05524	0.63333154	0.0098540178
2.7602527	686.40399	0.87322044	0.0098532783
2.7627699	681.48834	0.94832808	0.0098525537
2.7652874	670.75262	0.80091119	0.0098517258
2.7678046	667.24292	0.81444675	0.0098510012
2.7703221	662.71167	0.71121246	0.0098501584
2.7728393	659.32642	0.43379009	0.0098494338
2.7753565	656.7558	0.63293362	0.0098485909
2.777874	653.66046	0.64347267	0.0098478813
2.7803912	651.80658	0.62020248	0.0098470384
2.7829087	650.93353	1.29415	0.0098463139
2.7854259	649.24475	0.61184829	0.0098454859
2.7879434	646.24683	0.71598619	0.0098447613
2.7904606	643.51752	0.67147738	0.0098439185
2.792978	644.33423	0.98399478	0.0098430607
2.7954953	646.34857	0.63551611	0.0098423511
2.7980125	649.28314	0.78648537	0.0098415082
2.80053	653.30469	0.66772705	0.0098406654
2.8030472	656.55554	0.5841409	0.0098399408
2.8055646	657.43988	0.7654621	0.0098392311
2.8080819	665.09247	0.84318161	0.0098383883
2.8105993	665.4635	0.55237472	0.0098376637
2.8131166	670.07477	0.95725203	0.009836806
2.815634	677.67871	0.77263427	0.009835978
2.8181512	684.63403	0.89183414	0.0098351352
2.8206685	698.32776	0.89160675	0.0098344265
2.8231859	724.20612	0.96799845	0.0098335678
2.8257031	743.302	1.9926997	0.009832859
2.8282206	761.27539	1.3082993	0.0098320162
2.8307378	772.66736	0.7171827	0.0098312907
2.8332553	763.94226	0.92569828	0.0098303296
2.8357725	756.56042	0.67618102	0.009829605
2.83829	741.15869	0.68462509	0.0098287622
2.8408072	730.83136	1.088818	0.0098280534
2.8433247	716.91626	0.6569106	0.0098271947
2.8458419	708.45416	0.63993764	0.009826486
2.8483591	700.58026	0.64087826	0.0098256432
2.8508766	696.84595	1.0621413	0.0098248003
2.8533938	689.48547	1.3216186	0.0098240757
2.8559113	683.77271	0.823044	0.0098232329
2.8584285	675.88806	0.74414808	0.0098225083
2.8609459	664.3786	0.7389822	0.0098216645
2.8634632	657.15881	0.37791473	0.0098207192
2.8659806	656.1474	0.76333487	0.0098199788
2.8684978	653.08698	0.82779765	0.0098191518
2.8710151	649.117	1.1964214	0.0098184273
2.8735325	646.93512	0.66800064	0.0098175993
2.8760498	646.49384	0.91159922	0.0098167416
2.8785672	643.85028	0.73137933	0.0098159136
2.8810844	644.81085	0.88602054	0.0098151891
2.8836019	641.51746	0.7720241	0.0098142279
2.8861191	639.40173	0.72501105	0.0098135034
2.8886366	644.12885	0.70048487	0.0098127788
2.8911538	644.59613	0.70887095	0.0098119359
2.893671	641.21344	0.6987586	0.0098110931
2.8961885	641.37939	0.71543753	0.0098102652
2.8987057	641.70557	0.58519191	0.0098094074
2.9012232	643.63745	0.88746792	0.0098086828
2.9037404	643.56189	0.73567104	0.00980784
2.9062579	647.03656	0.89552325	0.009807012
2.9087751	651.64948	0.65121728	0.0098061692
2.9112926	651.43481	0.97481477	0.0098054446
2.9138098	655.79645	0.71584278	0.0098044835
2.9163272	650.82361	0.74291205	0.0098037589
2.9188445	653.73199	0.4025822	0.0098029161
2.9213617	655.58795	0.62569183	0.0098020881
2.9238791	655.39117	0.71001667	0.0098012453
2.9263964	650.64026	0.6875686	0.0098004024
2.9289138	648.104	0.67964423	0.0097996779
2.9314311	645.94281	0.71216744	0.0097987168
2.9339485	647.43707	0.79581892	0.0097979922
2.9364657	650.74603	0.77008462	0.0097971493
2.9389832	649.00299	0.32691875	0.0097963065
2.9415004	646.53931	0.7216478	0.0097954795
2.9440176	647.50555	0.83527899	0.0097946366
2.9465351	647.34918	0.68149477	0.0097937938
2.9490523	648.25421	0.75542343	0.0097929509
2.9515698	645.63708	0.93605411	0.0097922264
2.954087	639.92102	0.71636933	0.0097913835
2.9566045	633.49451	0.73115706	0.0097904224
2.9591217	629.70197	0.57459372	0.0097895944
2.9616392	624.55341	0.54378545	0.0097887516
2.9641564	620.34076	0.69146609	0.0097879088
2.9666736	617.87781	0.67899036	0.0097871842
2.9691911	615.71942	0.79113907	0.0097862231
2.9717083	615.45862	0.3580409	0.0097854985
2.9742258	614.51038	0.58641362	0.0097846556
2.976743	614.05878	0.71733046	0.0097838128
2.9792604	610.3316	0.798563	0.00978297
2.9817777	610.0058	0.76287484	0.0097821271
2.9842951	616.38721	0.54715002	0.0097812992
2.9868124	615.04816	0.60955912	0.0097804563
2.9893298	617.66748	0.80798233	0.0097796135
2.991847	621.89783	0.71045321	0.0097787557
2.9943643	621.54639	0.53824013	0.0097779278
2.9968817	625.75452	0.67084622	0.0097770849
2.9993989	627.19849	0.58505517	0.0097763604
3.0019164	627.30023	0.41978154	0.0097753992
3.0044336	624.34656	0.69683969	0.0097745564
3.0069511	625.75128	0.66600525	0.0097738318
3.0094683	626.29773	0.54476607	0.0097728856
3.0119858	630.7677	1.0025445	0.0097720427
3.014503	635.6145	1.367933	0.0097711999
3.0170202	652.64972	2.6428187	0.0097703571
3.0195377	681.24786	5.7473531	0.0097694993
3.0220549	729.87335	12.225816	0.0097685531
3.0245724	847.70032	35.972744	0.0097678285
3.0270896	1295.7852	193.9411	0.0097669857
3.0296071	4718.0029	2169.8816	0.0097660245
3.0321243	3316.4133	448.75244	0.0097653158
3.0346417	3680.4517	584.16071	0.0097643388
3.037159	4802.2056	757.52881	0.009763496
3.0396764	2678.4158	155.67871	0.0097626531
3.0421937	1880.4005	184.6954	0.0097618103
3.0447109	1185.9277	60.979347	0.0097609833
3.0472283	876.3598	32.922028	0.0097601404
3.0497456	706.79828	3.8245001	0.0097592976
3.052263	662.74805	1.4732778	0.0097584547
3.0547802	642.88062	0.96987051	0.0097576119
3.0572977	631.66803	0.75107205	0.0097566508
3.0598149	621.47894	0.73243284	0.0097558079
3.0623324	615.69391	0.63322574	0.0097549651
3.0648496	614.84668	1.0512066	0.0097541371
3.0673668	613.29449	0.81637686	0.0097532943
3.0698843	612.38318	0.53653288	0.0097523332
3.0724015	611.72797	0.87394184	0.0097514754
3.074919	610.80322	0.86085469	0.0097507657
3.0774362	614.6712	0.78882182	0.0097497897
3.0799537	617.85797	0.74277979	0.0097489618
3.0824709	620.12524	0.64967108	0.0097481189
3.0849884	628.57031	0.68724495	0.0097472761
3.0875056	635.28711	0.60004312	0.0097464332
3.0900228	641.44916	0.69083548	0.0097454721
3.0925403	651.85565	0.92652249	0.0097446293
3.0950575	655.69641	0.73319983	0.0097437864
3.0975749	651.89838	0.66328567	0.0097429436
3.1000922	648.35358	0.54880178	0.0097419824
3.1026096	636.06189	0.636127	0.0097411545
3.1051269	625.47357	0.56786084	0.0097401785
3.1076443	621.58838	0.77461517	0.0097394688
3.1101615	616.69775	1.4728156	0.0097384928
3.112679	615.94513	1.403759	0.0097376499
3.1151962	612.79578	1.0249445	0.0097368071
3.1177135	609.07031	0.88246095	0.0097359791
3.1202309	608.53534	0.80289948	0.009735018
3.1227481	609.57349	0.66845614	0.0097341752
3.1252656	609.03314	0.71848011	0.0097333323
3.1277828	606.56531	0.5856021	0.0097324895
3.1303003	612.00458	0.75051171	0.0097315283
3.1328175	610.80438	0.62373358	0.0097306855
3.135335	612.56104	0.6856851	0.0097298585
3.1378522	615.69745	0.63921613	0.0097288815
3.1403694	616.99005	0.81729782	0.0097279362
3.1428869	616.70343	0.57816648	0.0097271958
3.1454041	614.69916	0.62853742	0.009726353
3.1479216	615.75458	0.43056947	0.0097253919
3.1504388	612.36591	0.67784947	0.009724549
3.1529562	607.7561	0.45338872	0.0097236037
3.1554735	605.0722	0.64165694	0.009722745
3.1579909	602.91888	0.67455143	0.0097217998
3.1605082	601.86029	0.76665181	0.0097209569
3.1630254	605.01276	0.57106781	0.0097201141
3.1655428	604.06708	0.87222099	0.0097192712
3.1680601	603.80408	0.60255015	0.0097183101
3.1705775	604.19952	0.72164285	0.0097174672
3.1730947	603.22131	0.74838156	0.0097165061
3.1756122	606.71686	0.70881063	0.0097155599
3.1781294	609.10699	0.83415991	0.0097147021
3.1806469	609.93311	1.2956712	0.0097138593
3.1831641	612.11249	2.377207	0.0097130165
3.1856816	610.42957	1.1422139	0.0097120702
3.1881988	607.42627	0.72553259	0.0097112274
3.190716	608.35211	0.94016999	0.0097103696
3.1932335	610.72168	0.67714846	0.0097094234
3.1957507	611.54034	0.68772709	0.0097085657
3.1982682	609.93127	0.58964276	0.0097076045
3.2007854	612.35889	0.50247347	0.0097067617
3.2033029	612.07092	0.58119488	0.0097059188
3.2058201	613.88464	0.70657158	0.0097049726
3.2083375	617.23944	0.77784878	0.0097040115
3.2108548	613.55096	0.65592104	0.0097031686
3.213372	619.12817	0.72696066	0.0097022075
3.2158895	619.35193	0.62550038	0.0097013647
3.2184067	623.15295	0.56726497	0.0097004035
3.2209241	627.19946	0.65234488	0.0096995607
3.2234414	626.95966	0.73654604	0.0096985996
3.2259588	630.58636	0.87935001	0.0096977567
3.228476	631.27405	0.72109997	0.0096967956
3.2309935	635.39008	0.69729149	0.0096959528
3.2335107	635.83582	0.67111737	0.0096949916
3.236028	635.01251	0.58911812	0.0096941646
3.2385454	636.52985	0.74202609	0.0096931877
3.2410626	639.79572	0.54265201	0.0096923448
3.2435801	638.2616	0.17425701	0.0096913837
3.2460973	634.84399	0.6372872	0.0096904384
3.2486148	629.31897	0.15250318	0.0096895797
3.251132	624.36597	0.41689235	0.0096886195
3.2536495	617.17126	0.736561	0.0096877757
3.2561667	612.53094	0.63085657	0.0096868305
3.2586842	612.56927	0.7136873	0.0096859727
3.2612014	609.27612	0.77336723	0.0096850116
3.2637186	608.04535	0.79808098	0.0096841687
3.2662361	606.19971	0.82666862	0.0096832225
3.2687533	603.41364	0.57596326	0.0096823797
3.2712708	604.56335	0.85165584	0.0096814036
3.273788	602.992	0.59937507	0.0096805608
3.2763054	599.95026	0.65414786	0.0096795997
3.2788227	597.85095	0.70456737	0.0096786534
3.2813401	595.99402	0.78361994	0.0096778106
3.2838573	596.3587	0.57755566	0.0096768346
3.2863746	595.0578	0.60009944	0.0096758734
3.288892	594.75531	0.4392001	0.0096750306
3.2914093	593.76215	0.94765562	0.0096739661
3.2939267	573.51099	2.6516383	0.0096731232
3.2964439	573.36285	2.7367556	0.0096721621
3.2989614	577.59662	2.5506716	0.0096713193
3.3014786	610.42334	4.3988376	0.0096703433
3.3039961	617.09485	4.1230574	0.009669397
3.3065133	607.04364	3.2365632	0.0096685542
3.3090305	607.52356	3.0633757	0.0096675931
3.311548	606.90576	2.8857348	0.0096667502
3.3140652	605.82825	2.6282973	0.0096657891
3.3165827	606.1391	2.5921834	0.009664828
3.3190999	606.82977	2.470114	0.0096638668
3.3216174	605.80212	2.5440598	0.009663024
3.3241346	605.31421	2.3858061	0.0096620629
3.3266521	604.51093	2.309072	0.0096610868
3.3291693	602.70789	2.2166059	0.0096602589
3.3316867	600.85162	2.146498	0.0096592978
3.334204	600.50012	2.0846562	0.0096583217
3.3367212	603.92468	2.1151018	0.0096574947
3.3392386	599.22809	1.9991797	0.0096565178
3.3417559	601.46637	2.0847821	0.0096555566
3.3442733	598.18054	2.050807	0.0096546113
3.3467906	600.04565	1.9744592	0.0096537685
3.349308	596.46295	1.6942065	0.0096528074
3.3518252	600.98932	1.8746382	0.0096518304
3.3543427	597.58331	1.7380997	0.0096508851
3.3568599	598.63898	1.7067188	0.009649924
3.3593771	596.75049	1.6253192	0.0096489629
3.3618946	595.87012	1.5771989	0.0096480018
3.3644118	595.63086	1.5359981	0.0096471589
3.3669293	596.78473	1.4436482	0.0096461829
3.3694465	598.6803	1.0558891	0.0096452218
3.371964	606.07983	1.1499293	0.0096443938
3.3744812	617.44305	1.4782938	0.0096433144
3.3769987	642.29034	2.51913	0.0096424716
3.3795159	690.40143	5.4723296	0.0096415104
3.3820331	806.65979	13.116848	0.0096405344
3.3845506	1130.7651	40.175201	0.0096397065
3.3870678	2463.1196	366.03156	0.0096387453
3.3895853	4254.1416	319.73148	0.0096377842
3.3921025	8390.3945	1168.0259	0.0096368082
3.3946199	17032.283	5779.2051	0.009635862
3.3971372	7010.2578	605.83655	0.0096349008
3.3996546	4514.376	263.48813	0.0096339397
3.4021719	2376.0464	122.09354	0.0096329637
3.4046893	1205.572	24.23455	0.0096320026
3.4072065	835.3244	9.3295393	0.0096311746
3.4097238	698.48798	3.4365137	0.0096300952
3.4122412	642.54474	1.9760972	0.0096292524
3.4147584	619.38373	1.134068	0.0096282912
3.4172759	604.20764	0.83985305	0.0096271969
3.4197931	597.34375	0.52235776	0.0096263541
3.4223106	592.87903	0.74178654	0.0096254088
3.4248278	592.05927	0.5822295	0.0096244318
3.4273453	588.4082	0.73143768	0.0096234865
3.4298625	587.93762	0.76185197	0.0096225096
3.4323797	587.14099	0.73853785	0.0096215643
3.4348972	589.33966	0.69579357	0.0096207215
3.4374144	590.32776	0.75676996	0.0096196262
3.4399319	587.92383	0.74907184	0.0096186651
3.4424491	589.98462	0.66066992	0.0096178222
3.4449666	587.99371	0.75977397	0.0096167438
3.4474838	586.72906	0.81349683	0.0096157975
3.4500012	588.02209	0.75958949	0.0096148215
3.4525185	585.10187	0.6959604	0.0096139787
3.4550357	588.16791	0.64556843	0.0096128993
3.4575531	587.69159	0.59699607	0.0096120564
3.4600704	588.18457	0.95589769	0.0096110953
3.4625878	588.83936	0.80236101	0.0096100308
3.4651051	589.71082	0.79424453	0.0096090548
3.4676225	588.61884	0.88879144	0.0096080936
3.4701397	585.7525	0.7554974	0.0096072657
3.4726572	591.19177	0.72550154	0.0096062897
3.4751744	592.9151	0.68551338	0.0096053286
3.4776919	594.34985	1.0465401	0.0096043674
3.4802091	593.40833	0.90053493	0.0096033914
3.4827263	597.90149	0.85315728	0.0096024452
3.4852438	593.67737	0.8875494	0.0096013658
3.487761	594.45258	1.0227184	0.0096004046
3.4902785	590.24719	0.78340632	0.0095994435
3.4927957	589.34863	0.60594618	0.0095984824
3.4953132	590.1225	0.70125335	0.0095973881
3.4978304	590.63281	0.75762665	0.0095965452
3.5003479	593.2771	0.85093331	0.0095954658
3.5028651	589.44446	0.90309191	0.0095945196
3.5053823	590.17688	0.55494893	0.0095936768
3.5078998	590.2442	0.85794526	0.0095925983
3.510417	589.38684	0.75334871	0.0095917555
3.5129344	589.9455	0.6924755	0.0095906761
3.5154517	591.92419	1.0426878	0.0095897149
3.5179691	590.62079	0.75785869	0.009588738
3.5204864	593.05426	0.99418753	0.0095877768
3.5230038	587.97876	0.82015979	0.0095866974
3.525521	591.81989	0.85479665	0.0095858546
3.5280385	591.00006	0.63615572	0.0095847761
3.5305557	593.75739	0.69518209	0.0095838299
3.5330729	594.03796	0.91895932	0.0095828539
3.5355904	594.66888	0.56231147	0.0095817745
3.5381076	598.31268	0.6838848	0.0095809316
3.5406251	597.75922	0.71783137	0.0095799705
3.5431423	596.49854	0.74166256	0.0095788911
3.5456598	598.5697	0.8041113	0.00957793
3.548177	598.06024	0.73742956	0.0095769539
3.5506945	601.02667	1.2624406	0.0095760077
3.5532117	606.31049	0.77268457	0.0095749134
3.5557289	606.95679	0.64321399	0.0095739672
3.5582464	608.57361	0.79081959	0.0095730061
3.5607636	605.71289	0.70037526	0.00957203
3.5632811	604.67902	0.56801921	0.0095710689
3.5657983	604.40558	0.93514377	0.0095701078
3.5683157	603.97455	0.71228057	0.0095690433
3.570833	600.17493	0.5878492	0.0095680673
3.5733504	598.61322	0.68441236	0.0095670028
3.5758677	599.87067	0.82968318	0.0095660267
3.5783849	599.36658	1.4900805	0.0095650656
3.5809023	599.44244	1.5891926	0.0095641045
3.5834196	599.59882	0.86006945	0.0095631434
3.585937	594.69495	0.83327711	0.0095621822
3.5884542	592.60724	0.71768928	0.0095612211
3.5909717	591.51416	0.70863503	0.0095600234
3.5934889	592.53442	0.76086915	0.0095590623
3.5960064	594.52368	0.79305041	0.0095580863
3.5985236	596.53839	0.67554909	0.009557141
3.6010411	595.15808	0.79337716	0.0095560458
3.6035583	597.8783	0.90081608	0.0095551005
3.6060755	594.36401	0.89957464	0.0095541235
3.608593	594.93463	0.4837127	0.0095531624
3.6111102	591.00183	0.6625874	0.0095522013
3.6136277	596.3078	0.81269729	0.0095511228
3.6161449	594.5177	0.83498651	0.0095500434
3.6186624	592.51776	0.52767873	0.0095490823
3.6211796	588.02008	0.78174788	0.0095481211
3.623697	588.07623	0.7518692	0.00954716
3.6262143	586.42157	0.81874579	0.0095460657
3.6287315	590.47583	0.99167967	0.0095451195
3.631249	590.77301	0.50883365	0.0095440252
3.6337662	593.78687	0.67022508	0.009543079
3.6362836	592.90845	0.74060035	0.0095421029
3.6388009	595.00885	0.72463351	0.0095411567
3.6413183	593.11023	0.63446379	0.0095400624
3.6438355	588.72089	0.68209183	0.009538983
3.646353	587.07404	0.72568673	0.0095380219
3.6488702	584.2583	0.52090788	0.0095370607
3.6513875	582.26868	0.7135427	0.0095359813
3.6539049	584.46606	0.69624758	0.0095350202
3.6564221	582.98651	0.64307851	0.0095340591
3.6589396	583.1012	0.65128767	0.0095329797
3.6614568	581.38306	0.80342573	0.0095320186
3.6639743	582.65332	0.70574147	0.0095310425
3.6664915	586.75903	0.67838562	0.0095299631
3.669009	584.28131	0.69885057	0.009529002
3.6715262	586.75775	0.82551229	0.0095279384
3.6740437	590.0083	0.73976851	0.0095269615
3.6765609	591.2514	0.72547042	0.0095258821
3.6790781	591.52747	0.76466084	0.009524921
3.6815956	588.65405	0.73525584	0.0095238416
3.6841128	589.39105	0.7359097	0.0095227472
3.6866302	590.11249	0.8979705	0.0095217861
3.6891475	590.03235	0.87687504	0.009520825
3.6916649	589.82556	0.68623286	0.0095197456
3.6941822	593.30377	0.64785761	0.0095187845
3.6966996	595.70258	0.8783707	0.0095177051
3.6992168	605.96246	1.0361794	0.0095167439
3.7017341	623.75671	1.8509651	0.0095156655
3.7042515	662.47388	4.0849633	0.0095145861
3.7067688	767.26697	11.812099	0.0095136249
3.7092862	1138.2668	45.638611	0.0095125297
3.7118034	2095.1079	105.48914	0.0095115844
3.7143209	4311.3472	1001.0901	0.009510505
3.7168381	3424.364	225.89493	0.009509529
3.7193556	3377.2959	180.1306	0.0095084496
3.7218728	2610.2515	178.58038	0.0095075034
3.72439	2137.5254	157.39162	0.0095065273
3.7269075	1337.3447	76.098457	0.0095053446
3.7294247	836.9397	14.591068	0.0095043685
3.7319422	677.8952	4.2002797	0.0095033925
3.7344594	628.46466	1.7084253	0.009502328
3.7369769	607.67401	1.0653666	0.0095012486
3.7394941	598.05164	0.86148995	0.0095002726
3.7420115	592.40796	0.73717374	0.0094992081
3.7445288	585.29846	0.88296795	0.0094981287
3.7470462	583.21686	0.72232193	0.0094971675
3.7495635	581.39825	0.85162753	0.0094960732
3.7520807	578.23975	0.70779228	0.0094951121
3.7545981	572.64783	0.81190008	0.0094940327
3.7571154	571.35724	0.82525462	0.0094929533
3.7596328	572.57123	0.71873313	0.0094919922
3.76215	570.50153	0.80535853	0.0094908979
3.7646675	570.16797	0.75500327	0.0094899368
3.7671847	571.1109	0.83050823	0.0094887549
3.7697022	571.2002	0.75342005	0.0094877938
3.7722194	570.79498	1.1749617	0.0094866985
3.7747366	572.2052	0.67614245	0.0094857374
3.7772541	573.03815	0.68929404	0.0094847763
3.7797713	574.37903	0.74783862	0.0094835637
3.7822888	574.96674	0.7377367	0.0094826184
3.784806	576.4502	1.29721	0.009481539
3.7873235	578.65009	3.1906991	0.0094805621
3.7898407	575.56201	1.484084	0.0094794836
3.7923582	572.43872	0.90713614	0.0094784042
3.7948754	571.65515	0.59469378	0.0094773248
3.7973926	570.13751	0.83051276	0.0094763637
3.7999101	569.03601	0.81443387	0.0094752843
3.8024273	569.34595	0.85222512	0.0094743231
3.8049448	568.46661	0.86363995	0.0094732437
3.807462	570.2995	0.82889378	0.0094720311
3.8099794	569.48285	0.85133874	0.00947107
3.8124967	568.57123	0.79150105	0.0094699906
3.8150141	569.37354	0.83497745	0.0094690295
3.8175313	568.42932	0.73353398	0.0094679501
3.8200488	571.08636	0.83419913	0.0094668707
3.822566	570.76135	0.92203486	0.0094657913
3.8250833	574.69867	2.1732135	0.0094647119
3.8276007	590.88837	8.8530617	0.0094637359
3.8301179	585.24036	4.9289298	0.0094626565
3.8326354	575.77979	1.3971798	0.0094615771
3.8351526	574.74103	0.88621604	0.0094604976
3.8376701	572.46729	0.81901252	0.0094595365
3.8401873	571.81903	0.89362097	0.0094584571
3.8427048	571.39972	0.67318535	0.0094572594
3.845222	572.19525	0.85226649	0.0094562834
3.8477392	573.51672	0.85660225	0.0094553381
3.8502567	569.33008	0.72022837	0.0094541246
3.8527739	568.92261	0.67955977	0.0094531635
3.8552914	569.31061	0.69180113	0.0094520841
3.8578086	566.68536	0.8792153	0.0094510056
3.8603261	568.35443	0.74418318	0.0094499262
3.8628433	568.49652	0.74584275	0.0094488468
3.8653607	569.14795	0.86990201	0.0094477674
3.867878	565.08716	0.7063219	0.0094466731
3.8703952	568.89496	0.82378447	0.009445712
3.8729126	569.76019	0.72481006	0.0094446326
3.8754299	566.14343	0.85294074	0.0094435532
3.8779473	570.67511	0.5788998	0.0094424738
3.8804646	567.87006	0.73221833	0.0094413944
3.882982	570.71246	0.77244681	0.009440315
3.8854992	572.16876	0.58714831	0.0094393538
3.8880167	569.85974	0.79590082	0.0094382595
3.8905339	571.24963	0.76065439	0.009437195
3.8930514	572.14093	0.6047135	0.0094361007
3.8955686	572.70734	0.66446024	0.009434903
3.8980858	571.09869	0.74825901	0.0094339419
3.9006033	570.02557	0.74482661	0.0094328476
3.9031205	565.58569	0.73505908	0.0094317831
3.905638	565.72064	0.7574333	0.0094306888
3.9081552	565.86957	0.70005387	0.0094296094
3.9106727	564.479	0.75659657	0.00942853
3.9131899	562.59442	0.79145455	0.0094274506
3.9157073	566.0014	0.75872886	0.0094263712
3.9182246	564.62006	0.95241946	0.0094253952
3.9207418	561.98682	0.82929242	0.0094241975
3.9232593	561.91949	0.7958284	0.0094231339
3.9257765	563.16132	0.80654001	0.0094220387
3.9282939	559.52045	0.67876929	0.0094210776
3.9308112	561.02661	0.83949012	0.009419865
3.9333286	563.22797	1.010789	0.0094188014
3.9358459	560.33875	0.61297202	0.0094177062
3.9383633	559.80585	0.78829849	0.0094166268
3.9408805	562.34564	0.69129431	0.0094155483
3.9433978	561.6272	0.80739355	0.0094144531
3.9459152	559.37152	0.68641204	0.0094133895
3.9484324	560.49048	0.79224515	0.0094122943
3.9509499	562.70636	0.55737877	0.0094112307
3.9534671	559.59222	0.88509285	0.0094101513
3.9559846	560.78711	0.85456717	0.009409057
3.9585018	558.46637	0.57216203	0.0094079617
3.9610193	561.43298	0.63399434	0.0094068833
3.9635365	563.01636	0.29856381	0.0094058188
3.966054	562.60504	0.43903103	0.0094047245
3.9685712	565.71686	0.59691703	0.0094036451
3.9710884	568.31311	0.6556893	0.0094024474
3.9736059	570.2561	0.59581745	0.0094014863
3.9761231	573.49054	0.59859967	0.0094004069
3.9786406	575.56885	0.62463903	0.0093993274
3.9811578	576.09009	0.76395297	0.0093981298
3.9836752	575.51965	0.50426441	0.0093970355
3.9861925	573.26996	0.58325553	0.009395971
3.9887099	575.14807	0.61767161	0.0093948767
3.9912271	571.81573	0.72298652	0.0093937973
3.9937444	569.71631	0.65736085	0.009392703
3.9962618	568.841	0.79306281	0.0093917418
3.9987791	566.40027	0.55000222	0.0093905441
4.0012965	565.07599	0.74040121	0.0093894647
4.0038137	564.45007	0.78565615	0.0093882522
4.006331	563.25763	0.82156235	0.0093871877
4.0088487	561.04358	0.75686836	0.0093862116
4.0113659	561.24542	0.64995563	0.0093850298
4.0138831	559.01355	0.76769316	0.0093838163
4.0164003	559.44452	0.82128525	0.0093828402
4.0189176	559.48798	0.89383084	0.0093816584
4.0214353	562.05157	0.79685855	0.0093804449
4.0239525	561.95044	0.78243452	0.0093794689
4.0264697	565.01489	0.83552033	0.009378287
4.0289869	563.45477	0.79894638	0.0093770735
4.0315046	565.2663	0.77085406	0.0093761282
4.0340219	564.41571	0.85467309	0.0093751512
4.0365391	564.19257	0.90674704	0.0093739694
4.0390563	563.28998	0.88409519	0.0093729934
4.0415735	561.96106	0.78366292	0.0093718106
4.0440912	560.0697	0.85896027	0.0093708346
4.0466084	557.75372	0.7844615	0.0093696518
4.0491257	553.97638	0.80494696	0.0093684392
4.0516429	557.70154	0.61841756	0.0093674632
4.0541606	553.06323	0.71442127	0.0093662506
4.0566778	552.83954	0.76170951	0.0093650678
4.059195	552.28845	0.69305068	0.0093641216
4.0617123	551.42773	0.89128774	0.0093628792
4.06423	551.33118	0.89326417	0.0093616964
4.0667472	551.20135	0.75797993	0.0093607204
4.0692644	551.09692	0.83169889	0.0093595376
4.0717816	551.60046	0.70046473	0.0093583558
4.0742989	552.33099	0.98263961	0.0093573788
4.0768166	551.72009	0.57427603	0.0093561662
4.0793338	553.39911	0.76890135	0.0093549844
4.081851	552.97736	0.88739139	0.0093537709
4.0843682	552.24243	0.88225079	0.0093527948
4.0868859	551.87372	0.83371979	0.009351613
4.0894032	549.04742	0.84067535	0.009350636
4.0919204	548.00305	0.82430935	0.0093494542
4.0944376	550.15308	0.89748472	0.0093482416
4.0969548	549.09271	0.89426059	0.0093470281
4.0994725	547.01129	0.78589427	0.0093460828
4.1019897	551.50671	0.75575507	0.0093448693
4.104507	552.01581	0.77815837	0.0093436874
4.1070242	549.31281	0.74276567	0.0093427114
4.1095419	549.5025	0.76347542	0.0093414979
4.1120591	549.80737	0.87869006	0.0093403161
4.1145763	548.2475	0.93363804	0.00933934
4.1170936	548.8924	0.78069395	0.0093383938
4.1196108	546.9787	0.75348103	0.0093369447
4.1221285	545.25757	0.81169891	0.0093359984
4.1246457	544.88892	0.84124821	0.0093350224
4.1271629	547.22552	0.97367227	0.0093335733
4.1296802	545.55304	0.67534947	0.0093325973
4.1321979	543.73596	0.72523493	0.0093314145
4.1347151	546.61102	0.75001234	0.0093304384
4.1372323	542.85895	0.72683501	0.0093292557
4.1397495	547.62299	0.81605905	0.0093280431
4.1422668	546.77063	0.85013837	0.0093270969
4.1447845	543.29572	0.84172803	0.0093258843
4.1473017	544.39484	0.70336139	0.0093246717
4.1498189	545.29773	0.81468761	0.0093234889
4.1523361	545.52502	0.67484772	0.0093225129
4.1548538	547.28589	0.75273937	0.009321331
4.157371	545.67432	0.82471174	0.0093201175
4.1598883	547.38934	0.72835559	0.0093189357
4.1624055	543.30585	0.66737473	0.0093177231
4.1649227	545.33191	0.97287059	0.0093167461
4.1674404	544.74426	0.99132174	0.0093155336
4.1699576	544.28662	0.88575351	0.0093145873
4.1724749	544.66339	0.96287221	0.0093133748
4.1749921	543.41168	0.83159614	0.0093121622
4.1775098	543.11169	0.82721126	0.0093109803
4.180027	541.44086	0.78577006	0.0093097668
4.1825442	540.7879	0.73917902	0.0093088215
4.1850615	542.2254	0.75010633	0.0093076387
4.1875787	543.1698	0.66639698	0.0093064262
4.1900964	542.47168	0.79297352	0.0093054501
4.1926136	542.03491	0.75566494	0.009304001
4.1951308	543.00397	0.82736063	0.0093030548
4.197648	541.97107	0.65669382	0.009301872
4.2001657	542.50732	0.74446476	0.0093006296
4.202683	544.51544	0.77253997	0.0092996834
4.2052002	543.32196	0.63470519	0.009298264
4.2077174	545.89075	0.76396298	0.0092975246
4.2102351	543.61987	0.78526789	0.0092960754
4.2127523	541.94495	0.74990004	0.0092948629
4.2152696	544.88818	0.82029045	0.0092939166
4.2177868	545.46832	0.690988	0.0092927041
4.220304	545.11005	0.75449115	0.0092915213
4.2228217	541.48138	0.85839039	0.0092903087
4.2253389	542.86572	0.6629473	0.0092893634
4.2278562	543.84045	0.76294631	0.0092881499
4.2303734	541.65198	0.77394366	0.0092869373
4.2328911	543.23499	0.80072814	0.0092857555
4.2354083	543.01801	0.9260329	0.0092845419
4.2379255	542.64886	0.82672298	0.0092835659
4.2404428	541.07648	0.77857363	0.0092821475
4.24296	544.93378	0.82856345	0.0092811706
4.2454777	543.9325	0.81388652	0.0092799887
4.2479949	540.51678	0.78138262	0.0092787761
4.2505121	542.49487	0.97426337	0.0092775626
4.2530293	545.22888	0.75796312	0.0092766173
4.255547	544.9519	0.82413989	0.0092754047
4.2580643	546.00055	0.87044162	0.009274222
4.2605815	543.82739	0.84135932	0.0092732459
4.2630987	545.76031	0.75471538	0.0092717968
4.2656159	544.28345	0.82941329	0.0092705833
4.2681336	542.29358	0.75538194	0.0092694014
4.2706509	546.18842	1.0753192	0.0092684552
4.2731681	546.32861	1.0159482	0.0092672426
4.2756853	554.84216	1.4889311	0.00926603
4.278203	567.95679	3.2564905	0.0092648175
4.2807202	606.34082	8.6535254	0.0092636049
4.2832375	760.51562	46.8825	0.0092624221
4.2857547	1649.2727	508.95068	0.0092614759
4.2882719	1254.7267	73.157936	0.0092602633
4.2907896	1257.844	48.798367	0.0092590814
4.2933068	1291.7059	83.492477	0.0092578679
4.2958241	1313.1721	139.82124	0.0092568919
4.2983413	1010.5526	49.740723	0.0092554428
4.300859	869.67773	49.257851	0.0092544965
4.3033762	663.58173	10.563611	0.009253284
4.3058934	584.63129	2.4785738	0.0092521021
4.3084106	558.3808	1.0646247	0.0092508886
4.3109279	549.29321	1.1146796	0.009249676
4.3134456	539.84656	0.74882138	0.0092484942
4.3159628	538.02466	0.75292969	0.0092472807
4.31848	540.22955	0.80697626	0.0092460681
4.3209972	537.60059	0.8058266	0.0092451228
4.3235149	538.85834	0.88471007	0.0092437034
4.3260322	540.64038	0.81057626	0.0092424909
4.3285494	538.78583	0.71706897	0.0092414841
4.3310666	540.98444	0.8803305	0.0092403013
4.3335843	537.73816	0.70986891	0.0092390887
4.3361015	535.39893	0.86512524	0.0092379069
4.3386188	538.09338	0.7433449	0.0092366943
4.341136	539.17993	0.80359495	0.0092357481
4.3436532	538.59283	0.64001846	0.0092345355
4.3461709	540.41016	0.76675481	0.0092333229
4.3486881	541.1994	0.58409661	0.0092319036
4.3512053	539.25378	0.7799024	0.009230691
4.3537226	540.16193	0.65629292	0.0092297448
4.3562403	538.57666	0.8083989	0.0092285322
4.3587575	537.96875	0.74821508	0.0092273196
4.3612747	536.60614	0.84764487	0.0092261368
4.3637919	536.96887	0.782408	0.0092249243
4.3663092	536.99579	0.70182204	0.0092237424
4.3688269	538.20142	0.82582718	0.0092225289
4.3713441	537.14075	0.76213807	0.0092213163
4.3738613	534.46759	0.64966661	0.009220371
4.3763785	539.74164	0.81151146	0.0092191575
4.3788962	537.09399	1.1996121	0.0092179449
4.3814135	540.17902	3.4793994	0.0092165265
4.3839307	537.45825	0.96445453	0.0092155496
4.3864479	536.33765	0.75617164	0.0092141004
4.3889651	534.24939	0.73186153	0.0092131551
4.3914828	534.59924	0.77870327	0.0092119416
4.3940001	533.8606	0.78374624	0.009210729
4.3965173	537.13904	0.83824688	0.0092095472
4.3990345	533.71539	0.63137662	0.0092083337
4.4015522	534.28638	0.94549489	0.0092071518
4.4040694	536.35797	0.77737647	0.0092059392
4.4065866	533.77704	0.68935448	0.0092047267
4.4091039	536.16205	0.75302756	0.0092035439
4.4116211	533.68152	0.79099482	0.0092023313
4.4141388	534.26959	0.71944112	0.0092011187
4.416656	534.0047	0.93155104	0.0091999359
4.4191732	535.2265	0.82027149	0.0091987234
4.4216905	532.69965	0.71450269	0.0091977771
4.4242082	532.25	0.67891878	0.0091962973
4.4267254	533.0946	0.75668257	0.0091951154
4.4292426	534.41656	0.90822411	0.0091939028
4.4317598	534.02661	0.80757999	0.0091927201
4.4342771	533.71198	0.76991111	0.0091915382
4.4367948	534.36578	0.71352434	0.0091902949
4.439312	534.64026	0.82925618	0.0091891121
4.4418292	533.67029	0.74450392	0.0091878995
4.4443464	531.98663	0.71867996	0.0091867177
4.4468641	530.7287	0.74243182	0.0091855042
4.4493814	531.48535	0.87700409	0.0091842916
4.4518986	531.01105	0.67023957	0.0091831097
4.4544158	530.04749	0.84478194	0.0091818962
4.456933	531.86658	0.83071321	0.0091806836
4.4594507	530.32898	0.76924765	0.0091792345
4.4619679	528.33704	0.74769109	0.0091782883
4.4644852	529.66742	0.73596603	0.0091768699
4.4670024	530.59381	0.91387212	0.0091758939
4.4695201	528.052	0.63907361	0.0091746803
4.4720373	528.40106	0.80154276	0.0091732312
4.4745545	528.55914	0.88538736	0.0091720186
4.4770718	527.37488	0.77810872	0.0091710733
4.4795895	528.74432	0.77345699	0.0091698598
4.4821067	528.83008	0.77595407	0.0091684414
4.4846239	529.94128	0.839589	0.0091672288
4.4871411	530.72986	1.0202318	0.009166046
4.4896584	525.0025	0.75316817	0.00916507
4.4921761	528.71222	0.85199684	0.0091636507
4.4946933	528.8042	0.65547925	0.0091626439
4.4972105	526.91925	0.89010507	0.0091612255
4.4997277	527.62341	0.85642797	0.0091600129
4.5022454	529.01758	0.84186703	0.0091588302
4.5047626	529.57269	0.79146928	0.0091576176
4.5072799	526.75446	0.86688757	0.0091564357
4.5097971	528.99945	0.76124305	0.0091549559
4.5123143	527.76868	0.74442309	0.0091540096
4.514832	528.63788	0.70944637	0.0091527971
4.5173492	527.68182	0.81425112	0.0091516143
4.5198665	530.98962	0.87182552	0.0091504017
4.5223837	531.99805	0.68645293	0.0091492198
4.5249014	535.25879	0.84858906	0.00914774
4.5274186	535.56476	0.70774573	0.0091465879
4.5299358	538.86523	0.80367547	0.0091453446
4.5324531	547.62067	0.84396493	0.0091441628
4.5349703	562.92877	1.0211382	0.0091429492
4.537488	588.7876	1.4610304	0.0091417674
4.5400052	653.31445	3.2535963	0.0091403183
4.5425224	841.95929	11.789847	0.0091393413
4.5450397	1372.3665	42.094925	0.0091381595
4.5475574	2551.7415	142.74394	0.0091369469
4.5500746	3590.5039	421.55167	0.0091357343
4.5525918	3373.574	214.76709	0.009134315
4.555109	2897.0125	144.23143	0.0091331024
4.5576262	3006.5808	267.93369	0.0091318898
4.5601439	2674.719	300.16403	0.0091306763
4.5626612	1435.5551	98.368835	0.0091294944
4.5651784	828.42633	19.51536	0.0091282818
4.5676956	639.56934	5.40201	0.0091270991
4.5702133	578.16595	2.1756611	0.0091258865
4.5727305	553.62079	1.0699834	0.0091246739
4.5752478	541.69702	0.73935157	0.0091232248
4.577765	531.41077	0.94371337	0.009122042
4.5802822	530.54803	0.71958351	0.0091208601
4.5827999	529.013	0.76332808	0.0091196168
4.5853171	524.98206	0.69610852	0.009118434
4.5878344	525.0271	0.76662177	0.0091169849
4.5903516	523.59894	0.8672052	0.0091158031
4.5928693	521.70837	0.75716037	0.0091145895
4.5953865	523.92969	0.72736645	0.009113377
4.5979037	521.16748	0.84106648	0.0091121951
4.600421	522.46771	0.82610703	0.0091109816
4.6029382	521.45007	0.76904398	0.009109769
4.6054559	519.49103	0.68922758	0.0091083506
4.6079731	519.0462	0.33453515	0.0091073737
4.6104903	520.29004	0.84760809	0.0091059245
4.6130075	518.4729	0.82099301	0.0091047119
4.6155252	515.10028	0.89604974	0.0091035301
4.6180425	519.45367	1.7539375	0.0091023473
4.6205597	518.19165	1.8400295	0.0091011347
4.6230769	517.14709	2.4916942	0.0090996856
4.6255946	519.42468	2.7981498	0.009098473
4.6281118	517.46082	3.5260079	0.0090970229
4.6306291	515.46893	4.2421923	0.0090960776
4.6331463	552.28284	1.2519118	0.0090948651
4.6356635	540.50385	0.98279464	0.0090934457
4.6381812	537.00891	0.8783347	0.0090922331
4.6406984	534.04938	0.32795548	0.0090910206
4.6432157	534.58203	0.59081185	0.0090898378
4.6457329	532.66864	0.46322659	0.0090883886
4.6482506	536.10028	2.5603044	0.0090871761
4.6507678	532.17798	0.77439564	0.0090859635
4.653285	534.59363	0.91398883	0.0090847807
4.6558022	531.22833	0.75718141	0.0090835989
4.6583195	531.68066	1.6005229	0.0090823853
4.6608372	530.30414	0.93253338	0.0090809362
4.6633544	527.99298	0.94656003	0.0090797236
4.6658716	532.65076	0.99850112	0.009078511
4.6683888	529.51593	0.96906412	0.0090770917
4.6709065	530.01239	0.89275396	0.0090761157
4.6734238	533.28027	0.84043312	0.0090746665
4.675941	533.78467	0.90708834	0.0090734847
4.6784582	528.96423	0.8056317	0.0090720346
4.6809754	531.36658	0.76190662	0.0090708528
4.6834931	531.63733	0.85583013	0.0090696402
4.6860104	531.88947	0.81015778	0.0090684267
4.6885276	530.9093	0.80836004	0.0090672141
4.6910448	532.56775	0.81387341	0.0090657957
4.6935625	533.54834	1.0329919	0.0090646129
4.6960797	530.86841	0.87705803	0.0090633696
4.698597	532.23694	0.81414258	0.0090619512
4.7011142	533.49469	0.75812465	0.0090607386
4.7036314	534.5592	0.74093086	0.009059526
4.7061491	533.02954	0.93794787	0.0090583432
4.7086663	533.56348	0.7790823	0.0090568941
4.7111835	534.60126	0.8958478	0.0090557113
4.7137008	531.46472	0.92906374	0.0090544987
4.7162185	534.24786	0.97683191	0.0090530496
4.7187357	533.13171	0.87830287	0.0090518678
4.7212529	534.27039	0.87289548	0.0090506542
4.7237701	533.23187	0.75727743	0.0090494417
4.7262874	532.99408	0.81016374	0.0090479925
4.7288051	531.7486	0.8459363	0.0090468097
4.7313223	534.35583	0.95195371	0.0090456279
4.7338395	529.9588	0.84119397	0.0090444153
4.7363567	533.08649	0.81405318	0.0090432027
4.7388744	531.70685	0.75952834	0.0090417527
4.7413917	533.46606	0.91091293	0.0090405401
4.7439089	534.07031	0.82915288	0.0090391217
4.7464261	531.99268	0.76113868	0.0090381447
4.7489438	530.98462	0.78119922	0.0090366956
4.751461	535.3645	0.78224605	0.0090355137
4.7539783	531.42267	0.77321988	0.0090340339
4.7564955	535.88757	0.82839286	0.009032852
4.7590127	535.09198	0.77712762	0.0090316692
4.7615304	535.56592	0.75219041	0.0090304567
4.7640476	532.42755	0.798329	0.0090290075
4.7665648	535.14313	0.76170677	0.0090275584
4.7690821	535.12573	0.81215394	0.0090263756
4.7715998	536.59308	0.75760317	0.009025163
4.774117	540.8476	1.0173472	0.0090239802
4.7766342	543.73566	1.0474507	0.0090225013
4.7791514	551.31262	1.7805386	0.0090213185
4.7816687	566.9718	3.2943177	0.0090201059
4.7841864	613.87756	9.9027367	0.0090189232
4.7867036	725.11554	28.022158	0.009017474
4.7892208	1304.1841	191.46777	0.0090162614
4.791738	2953.3057	769.68445	0.0090148421
4.7942557	2330.1736	136.56239	0.0090136295
4.796773	2825.5085	251.59583	0.0090124477
4.7992902	2741.603	188.62646	0.0090112044
4.8018074	2302.446	171.19305	0.009009785
4.8043246	1767.172	159.55843	0.0090085724
4.8068423	1239.6101	119.32903	0.0090073906
4.8093596	882.79999	65.258286	0.0090059415
4.8118768	651.08514	9.9415483	0.0090044914
4.814394	578.68292	2.6377499	0.0090032788
4.8169117	555.43921	1.5475936	0.009002097
4.8194289	540.53851	0.84294063	0.0090006478
4.8219461	536.89447	0.90996349	0.0089994343
4.8244634	535.88275	0.92503709	0.0089982217
4.8269806	532.27362	0.92175639	0.0089970399
4.8294983	531.72174	0.92855948	0.0089955907
4.8320155	531.59863	0.84381837	0.0089943772
4.8345327	531.03168	0.88940614	0.0089931954
4.83705	531.5177	0.80914444	0.0089917462
4.8395677	530.2818	0.84548968	0.0089903269
4.8420849	531.15686	0.89190364	0.0089891143
4.8446021	529.19464	0.83543277	0.0089879017
4.8471193	532.85852	0.90703207	0.0089864824
4.8496366	528.85974	0.89304143	0.0089852698
4.8521543	530.25287	0.98747873	0.0089838207
4.8546715	528.03784	0.92457736	0.0089826081
4.8571887	530.26599	0.88912922	0.0089811888
4.8597059	530.0965	0.8452878	0.0089799762
4.8622236	531.80585	0.92734182	0.0089787943
4.8647408	529.62048	0.73975265	0.0089775817
4.8672581	529.85065	0.80424422	0.0089761317
4.8697753	531.04077	0.81428903	0.0089749498
4.8722925	531.77759	0.77059257	0.0089737372
4.8748102	530.58478	0.79114789	0.0089722574
4.8773274	532.37738	0.89243841	0.008970838
4.8798447	529.8678	0.92280996	0.0089696255
4.8823619	527.94916	0.86851293	0.0089682071
4.8848796	529.6228	0.8649261	0.008967231
4.8873968	527.40259	0.83040959	0.008965781
4.889914	527.51428	0.89735544	0.0089645684
4.8924313	528.9552	1.4004649	0.0089629134
4.894949	528.72772	0.85844785	0.0089619374
4.8974662	529.7403	0.80889052	0.0089605181
4.8999834	526.99579	0.71693331	0.0089593055
4.9025006	529.3172	0.73384213	0.0089580929
4.9050179	530.45679	0.82985121	0.0089566736
4.9075356	530.71051	0.76729423	0.0089552244
4.9100528	530.41815	0.79970384	0.0089540118
4.91257	527.01105	0.91314137	0.0089527993
4.9150872	527.40424	0.80693418	0.0089513501
4.9176049	528.66626	0.83562976	0.0089499308
4.9201221	527.72125	0.81851804	0.0089487182
4.9226394	527.71277	0.91062897	0.0089475354
4.9251566	526.91388	0.92912453	0.0089460863
4.9276738	526.14563	1.0114423	0.0089446371
4.9301915	526.31531	0.92527944	0.0089434246
4.9327087	525.12299	0.86727083	0.008942212
4.935226	525.1405	0.8521269	0.0089407926
4.9377432	522.05804	0.92776263	0.0089396108
4.9402609	522.88989	0.79454613	0.0089381617
4.9427781	525.62616	0.80762124	0.0089369491
4.9452953	522.01465	0.93007737	0.008935499
4.9478126	522.30084	0.78858948	0.0089342864
4.9503298	520.79669	0.89278895	0.008932868
4.9528475	522.77814	0.75615525	0.0089316554
4.9553647	524.49646	0.84158432	0.0089302054
4.9578819	525.58521	0.86814773	0.008928787
4.9603992	522.40924	0.8387295	0.0089275744
4.9629169	522.40674	0.86880732	0.0089263618
4.9654341	519.6814	0.83317071	0.0089249127
4.9679513	522.10803	0.91822505	0.0089234933
4.9704685	523.25665	0.82446742	0.0089222807
4.9729857	523.15283	0.94383413	0.0089210682
4.9755034	521.98254	0.85234988	0.0089198854
4.9780207	522.03009	0.9330616	0.0089184362
4.9805379	523.45856	0.90954155	0.0089169871
4.9830551	523.81195	1.0482697	0.0089157745
4.9855728	521.35974	0.82661355	0.0089143552
4.98809	521.18616	0.95077479	0.0089129061
4.9906073	525.14142	0.98154098	0.0089116935
4.9931245	525.05115	0.9257952	0.0089102751
4.9956417	527.09155	0.89632815	0.0089090616
4.9981594	525.64264	0.81520087	0.0089076124
5.0006766	524.30945	0.84554178	0.0089064306
5.0031939	526.45215	0.77636993	0.0089049814
5.0057111	527.93372	0.90014547	0.0089037679
5.0082288	528.13013	0.87288564	0.0089023495
5.010746	529.69324	0.87668359	0.0089011062
5.0132632	536.01849	0.97813642	0.0088996878
5.0157804	545.42285	1.3205556	0.0088984743
5.0182977	570.49976	2.6320345	0.0088970559
5.0208154	635.55792	6.8194933	0.0088958126
5.0233326	885.55414	27.75872	0.0088943942
5.0258498	1844.4423	288.01608	0.008892945
5.028367	2661.3999	439.69952	0.0088917622
5.0308847	2371.7847	373.10812	0.0088903131
5.033402	2364.0667	170.57523	0.008888864
5.0359192	2660.0881	380.13669	0.0088876812
5.0384364	1538.7843	118.02222	0.0088864686
5.0409541	937.64868	34.025475	0.0088850502
5.0434713	718.5816	12.919362	0.0088838069
5.0459886	601.3819	4.4242749	0.008882151
5.0485058	560.22363	2.629221	0.0088809384
5.051023	534.86261	1.1243479	0.0088797566
5.0535407	526.92761	0.914213	0.0088782767
5.0560579	526.59979	0.99552256	0.0088768573
5.0585752	524.38751	0.89641887	0.0088756448
5.0610924	523.36835	0.83347642	0.0088744322
5.0636101	521.08728	0.77020526	0.008872983
5.0661273	521.73877	0.98554909	0.0088715637
5.0686445	521.04999	0.76281416	0.0088701146
5.0711617	522.28546	0.82274044	0.008868902
5.073679	523.27991	0.76435697	0.0088676894
5.0761967	521.54138	0.84119117	0.0088662701
5.0787139	523.75824	0.89005286	0.0088648517
5.0812311	523.1239	0.87610888	0.0088636391
5.0837483	523.42981	0.88236111	0.0088621899
5.086266	524.52661	0.91906756	0.0088607408
5.0887833	522.87659	0.85752392	0.0088593215
5.0913005	522.6156	0.82746452	0.0088581089
5.0938177	524.85559	1.261408	0.0088566905
5.0963349	521.84796	0.86538613	0.008855477
5.0988526	524.00446	0.98583329	0.008853998
5.1013699	522.5849	0.88911408	0.0088525787
5.1038871	519.43329	0.93624347	0.0088513661
5.1064043	517.08838	0.76978433	0.0088499468
5.108922	517.33435	0.71422023	0.0088484976
5.1114392	516.17426	0.83983833	0.0088472851
5.1139565	514.31659	0.94395411	0.0088458359
5.1164737	516.70898	0.89047116	0.0088446233
5.1189909	517.38226	1.4283072	0.0088434406
5.1215086	513.88153	0.88461298	0.0088417549
5.1240258	513.32104	0.80482066	0.0088405423
5.126543	513.47687	0.84261662	0.0088391239
5.1290603	513.56812	0.76773435	0.0088376747
5.131578	514.28442	0.72968435	0.0088364612
5.1340952	509.98047	0.83822173	0.0088350121
5.1366124	513.38947	0.75443751	0.0088338302
5.1391296	511.47754	0.85676682	0.0088323811
5.1416469	514.25983	1.3033255	0.0088311676
5.1441646	510.71887	0.98769033	0.0088295126
5.1466818	512.86792	0.87275565	0.0088283001
5.149199	510.65637	0.88642609	0.0088268509
5.1517162	512.69659	0.87653017	0.0088256374
5.1542339	514.18176	1.4162445	0.0088241883
5.1567512	511.9014	1.3512872	0.0088227391
5.1592684	512.05908	0.93083274	0.0088215573
5.1617856	511.38022	0.9824962	0.0088201081
5.1643028	512.06726	0.73284817	0.0088186888
5.1668205	511.42737	0.8457551	0.0088172397
5.1693377	512.23285	0.89393544	0.0088160271
5.171855	511.88989	0.87842739	0.0088145779
5.1743722	513.67554	0.9649027	0.0088131586
5.1768899	511.01651	0.80848503	0.0088117095
5.1794071	511.87286	0.86581844	0.0088105276
5.1819243	513.24237	0.79628092	0.0088090785
5.1844416	512.63	0.84895897	0.008807865
5.1869593	512.21448	0.87610859	0.0088064466
5.1894765	514.73486	0.89396781	0.0088049667
5.1919937	515.24701	0.79881948	0.0088037848
5.1945109	515.81512	0.81295824	0.0088023348
5.1970282	515.81219	0.95084959	0.0088008856
5.1995459	512.55713	0.90222222	0.0087994672
5.2020631	513.11554	0.79535818	0.0087982239
5.2045803	511.15973	0.79403526	0.008796569
5.2070975	516.50439	1.0273407	0.0087953564
5.2096152	514.90137	0.95551354	0.0087941429
5.2121325	514.58362	0.95982444	0.0087924879
5.2146497	514.98749	0.83630782	0.0087912753
5.2171669	513.31677	0.84866607	0.0087898262
5.2196841	512.71014	1.0581914	0.008788377
5.2222018	514.40411	0.85060745	0.0087871943
5.224719	517.04688	0.8801257	0.0087857759
5.2272363	514.14642	0.95035064	0.0087845325
5.2297535	515.35754	0.81771433	0.0087831132
5.2322712	515.28577	0.85845834	0.0087816641
5.2347884	515.5921	1.1473413	0.0087802457
5.2373056	518.75085	0.96999079	0.0087787965
5.2398229	519.2511	0.80645448	0.0087773167
5.2423401	526.797	0.93697953	0.0087761339
5.2448578	543.41284	1.9973408	0.0087746847
5.247375	607.4837	16.711514	0.0087732356
5.2498922	728.86737	31.530964	0.0087717865
5.2524095	740.74249	29.480162	0.0087703671
5.2549272	682.42194	15.248322	0.0087691545
5.2574444	671.41046	15.704902	0.0087677361
5.2599616	662.74072	16.43063	0.0087665236
5.2624788	631.87225	12.245157	0.0087650744
5.2649961	577.59839	5.882617	0.0087636244
5.2675138	541.13861	2.5532889	0.0087621752
5.270031	526.72546	1.2329036	0.0087607568
5.2725482	517.12799	1.0711895	0.0087595442
5.2750654	512.06689	0.79604888	0.0087580951
5.2775831	514.46991	0.85214186	0.008756645
5.2801003	513.46967	0.81298286	0.0087551959
5.2826176	513.8399	0.90542161	0.0087537775
5.2851348	511.56116	0.88222808	0.0087525649
5.287652	510.03574	0.95650727	0.0087511456
5.2901697	508.07199	0.75084299	0.0087496964
5.2926869	511.43887	0.91493142	0.0087482473
5.2952042	512.33466	0.88232386	0.0087470347
5.2977214	510.57086	0.84816337	0.008745349
5.3002391	509.3158	0.77083635	0.0087439297
5.3027563	511.30728	0.80588883	0.0087427171
5.3052735	509.66086	0.8722477	0.008741268
5.3077908	512.42639	0.88988727	0.0087398188
5.3103085	511.75418	0.93581563	0.008738636
5.3128257	512.5401	0.88997144	0.0087371869
5.3153429	511.38556	0.86314315	0.0087357378
5.3178601	509.98819	0.91113973	0.0087342886
5.3203773	512.34479	0.82452822	0.0087328702
5.3228951	511.13898	0.73077852	0.0087316567
5.3254123	511.91165	0.77373976	0.008729971
5.3279295	511.65631	0.86342907	0.0087287584
5.3304467	512.84991	0.84591836	0.00872734
5.3329644	509.6348	0.81477112	0.0087258909
5.3354816	510.91916	0.79963708	0.0087244418
5.3379989	512.14838	0.87852126	0.0087232282
5.3405161	510.72659	0.84281921	0.0087215733
5.3430333	512.19348	0.77248746	0.0087203607
5.345551	511.11957	0.90584731	0.0087189116
5.3480682	511.25296	0.85124606	0.0087174624
5.3505855	510.98172	0.85928059	0.0087160431
5.3531027	511.78009	0.92044824	0.0087145939
5.3556204	510.96945	0.81827319	0.0087133814
5.3581376	512.28455	0.91929853	0.0087116957
5.3606548	511.71762	0.8139655	0.0087105129
5.3631721	512.34912	0.92363232	0.0087090638
5.3656893	510.72052	0.86347675	0.0087076453
5.368207	510.72705	0.93169302	0.0087061655
5.3707242	510.03256	0.8526715	0.0087049529
5.3732414	511.4407	0.95940441	0.008703297
5.3757586	509.92783	0.82212842	0.0087021152
5.3782763	512.26392	0.81911218	0.0087006353
5.3807936	508.00607	0.97115695	0.0086992169
5.3833108	510.30307	0.9384259	0.0086977677
5.385828	510.33057	0.78409374	0.0086963177
5.3883452	510.72031	0.98087132	0.0086948685
5.3908629	511.85428	0.98400182	0.0086934501
5.3933802	510.14587	0.84299123	0.0086922375
5.3958974	510.15857	0.90499032	0.0086905519
5.3984146	506.77988	0.99244034	0.0086891027
5.4009323	508.49069	0.93449289	0.0086876834
5.4034495	509.55707	1.0360211	0.0086864708
5.4059668	509.32257	0.92471617	0.0086850217
5.408484	507.81186	0.95339745	0.0086836023
5.4110012	510.49719	0.87689292	0.0086821532
5.4135189	509.7366	0.91282958	0.008680704
5.4160361	510.83914	0.80753958	0.0086792549
5.4185534	509.34335	0.91207647	0.0086778058
5.4210706	510.43448	0.82179582	0.0086763566
5.4235883	510.77551	0.72567463	0.0086751739
5.4261055	508.76486	0.84016895	0.0086737247
5.4286227	508.87033	0.8152737	0.0086722756
5.4311399	508.1918	0.949467	0.0086706206
5.4336572	508.11035	0.84333086	0.0086694071
5.4361749	508.97833	0.9104231	0.008667958
5.4386921	510.14053	0.82541692	0.0086667761
5.4412093	510.52771	0.9413631	0.0086650597
5.4437265	508.8913	0.73206347	0.0086636106
5.4462442	511.58493	0.82558221	0.0086624278
5.4487615	513.66687	0.88463753	0.0086607421
5.4512787	519.67468	0.89488631	0.0086592929
5.4537959	527.30963	1.2766278	0.0086578745
5.4563136	551.51672	1.6778818	0.0086564254
5.4588308	623.57025	6.794179	0.0086549763
5.4613481	840.35199	30.545242	0.0086537628
5.4638653	1300.1068	176.79349	0.0086523443
5.4663825	1738.9281	226.90904	0.0086508952
5.4689002	2606.5959	483.63562	0.0086492095
5.4714174	2170.1497	192.5722	0.0086479969
5.4739347	1211.5767	55.357513	0.0086465478
5.4764519	850.41821	16.266344	0.0086451285
5.4789696	781.23688	23.932673	0.0086436793
5.4814868	706.64362	32.388611	0.0086422609
5.484004	586.74219	9.2184944	0.0086408108
5.4865212	533.56622	1.9008271	0.0086395983
5.4890385	518.76654	0.97344047	0.0086379126
5.4915562	510.34207	0.9215073	0.0086364942
5.4940734	509.0788	0.88446981	0.0086350143
5.4965906	509.40643	0.95544308	0.0086335959
5.4991078	508.75027	1.0591079	0.008632116
5.5016255	506.75726	0.77470511	0.0086306967
5.5041428	505.5116	0.86133748	0.0086294841
5.50666	506.47104	0.77435797	0.0086277984
5.5091772	505.60876	0.82924229	0.0086266166
5.5116944	503.34415	0.81433809	0.0086249309
5.5142121	503.53836	0.88877487	0.0086234817
5.5167294	503.97516	0.95635974	0.0086220624
5.5192466	505.72223	0.86096072	0.0086205825
5.5217638	504.70422	0.85315353	0.0086191641
5.5242815	503.72464	0.80433011	0.0086179515
5.5267987	505.89154	0.9018383	0.0086162658
5.5293159	507.26703	0.8627826	0.0086150523
5.5318332	502.75543	0.79640281	0.0086133666
5.5343504	504.49359	0.89070189	0.0086119482
5.5368681	504.97311	0.96910197	0.0086107356
5.5393853	506.96756	0.8272391	0.0086093163
5.5419025	504.79858	0.87341416	0.0086078374
5.5444198	505.46243	0.97361124	0.0086061815
5.5469375	502.74591	0.88718098	0.0086047323
5.5494547	504.72656	0.87795246	0.0086032832
5.5519719	504.25275	0.92515647	0.0086018341
5.5544891	504.0517	0.79959846	0.0086003849
5.5570064	505.75623	0.99086076	0.0085989656
5.5595241	504.01807	0.94942456	0.0085975165
5.5620413	503.62833	0.96969575	0.0085960981
5.5645585	505.05853	0.91076171	0.0085946489
5.5670757	503.55215	0.91763455	0.0085931998
5.5695934	502.15234	0.95906508	0.0085917804
5.5721107	503.34494	1.2596501	0.0085903313
5.5746279	505.06497	1.0287836	0.0085888822
5.5771451	505.52789	0.88022757	0.008587433
5.5796623	503.68762	0.85356259	0.0085859839
5.58218	506.15417	0.9442451	0.0085842982
5.5846972	504.26254	0.79639941	0.0085831154
5.5872145	502.64362	0.80211866	0.0085816663
5.5897317	503.01419	0.81333292	0.0085802171
5.5922494	503.9921	0.93186677	0.0085785314
5.5947666	504.24426	0.89933109	0.0085770823
5.5972838	506.10382	0.86312091	0.008575663
5.5998011	504.61029	0.84777737	0.0085744504
5.6023188	502.66879	0.8664422	0.0085727647
5.604836	504.23938	0.85896164	0.0085715521
5.6073532	504.22446	0.80573088	0.0085698972
5.6098704	503.401	0.84783226	0.0085684471
5.6123877	504.50937	0.83487719	0.0085669979
5.6149054	502.8147	0.75259441	0.0085655488
5.6174226	503.66891	0.81891924	0.0085640997
5.6199398	502.28061	0.74918401	0.0085626813
5.622457	505.35864	0.90707403	0.0085612321
5.6249747	503.95505	0.78603941	0.0085597821
5.627492	504.73959	0.94841933	0.0085581271
5.6300092	503.82144	0.84900802	0.0085569145
5.6325264	504.02072	0.90151429	0.0085552288
5.6350436	505.41504	0.91787177	0.0085537797
5.6375613	504.36664	0.82673579	0.0085523305
5.6400785	505.98178	0.9863748	0.0085509112
5.6425958	503.66193	0.86326331	0.0085494313
5.645113	504.85147	0.83592141	0.0085480129
5.6476307	506.35062	0.83087867	0.0085465638
5.6501479	504.70682	0.85742182	0.0085451147
5.6526651	512.67407	0.98011285	0.0085436655
5.6551824	515.92621	0.86007172	0.0085420096
5.6576996	522.94312	0.97078085	0.0085405605
5.6602173	540.98645	1.6853901	0.0085391114
5.6627345	588.19916	4.0610261	0.0085376622
5.6652517	722.42224	10.676538	0.0085362131
5.667769	1070.3468	39.601986	0.0085345274
5.6702867	1540.4558	56.084858	0.0085333446
5.6728039	1943.5355	109.97057	0.0085318955
5.6753211	1974.3821	120.28366	0.0085304771
5.6778383	2037.1996	96.129471	0.0085287606
5.6803555	2046.1575	207.8588	0.0085273422
5.6828732	1869.4686	206.64061	0.0085258922
5.6853905	1583.4788	255.35361	0.008524443
5.6879077	898.03302	48.941105	0.0085229939
5.6904249	641.02576	9.3345852	0.0085215755
5.6929426	563.43805	3.8205481	0.0085198898
5.6954598	532.59735	1.468074	0.0085186772
5.6979771	520.15302	1.1193371	0.0085169915
5.7004943	510.96658	0.97995549	0.0085155722
5.7030115	509.12671	0.99663597	0.008514123
5.7055292	505.58014	0.86835706	0.0085126739
5.7080464	508.17657	0.89691037	0.0085112546
5.7105637	504.02982	0.87190008	0.0085095391
5.7130809	505.79245	0.90712863	0.0085080899
5.7155986	504.30502	0.8760649	0.0085066706
5.7181158	503.40524	0.88654834	0.0085052215
5.720633	501.04999	0.89627707	0.0085035358
5.7231503	503.60385	0.89507735	0.0085020866
5.7256675	502.67596	0.90944552	0.0085006375
5.7281852	503.42978	0.89005816	0.0084994547
5.7307024	503.05432	0.82178575	0.008497769
5.7332196	505.30371	0.87463897	0.0084963199
5.7357368	504.63754	0.85585928	0.0084948707
5.7382545	505.51999	0.84587181	0.008493185
5.7407718	505.25656	0.84333259	0.0084919725
5.743289	504.8378	0.90924215	0.0084903175
5.7458062	507.83368	0.92731947	0.0084888674
5.7483239	506.97141	0.84495258	0.0084874183
5.7508411	506.40079	0.90913826	0.0084857633
5.7533584	507.00671	0.86781275	0.0084842835
5.7558756	505.47025	0.87968254	0.0084828651
5.7583928	508.03745	0.88362533	0.0084814457
5.7609105	506.00732	0.73086315	0.0084799668
5.7634277	505.63361	0.8029319	0.0084785474
5.765945	506.24603	0.82204962	0.0084770983
5.7684622	505.44821	0.75160509	0.0084754126
5.7709799	506.70184	0.73751003	0.0084739635
5.7734971	507.84103	1.0014324	0.0084722778
5.7760143	508.42917	0.77760977	0.0084708286
5.7785316	507.1568	0.92751694	0.0084696459
5.7810488	505.38794	0.96744782	0.0084679602
5.7835665	507.13318	0.91087753	0.0084662745
5.7860837	505.14636	0.91783673	0.0084650619
5.7886009	505.33499	0.87779838	0.0084634069
5.7911181	505.85895	0.91836745	0.0084619569
5.7936358	503.52094	0.91661555	0.0084605077
5.7961531	506.66135	0.83974135	0.0084590586
5.7986703	504.81491	0.90901953	0.0084576402
5.8011875	502.26575	0.97494543	0.0084559238
5.8037047	501.91406	0.91754436	0.0084545054
5.8062224	505.69879	1.7682406	0.0084530562
5.8087397	503.33798	1.1355243	0.0084516369
5.8112569	501.13501	0.8936494	0.008450157
5.8137741	501.73828	1.0116289	0.008448502
5.8162918	499.91751	0.80772275	0.0084467856
5.818809	501.4444	0.98841828	0.0084453672
5.8213263	502.84845	1.0248328	0.0084439181
5.8238435	502.13229	1.0037708	0.0084424987
5.8263607	499.26782	0.90404141	0.0084407832
5.8288784	500.84064	0.84047103	0.0084396005
5.8313956	500.61441	0.98640454	0.0084381513
5.8339128	503.30219	1.6600327	0.0084364656
5.8364301	501.01257	0.9022581	0.0084350165
5.8389478	502.28143	0.95783788	0.0084333615
5.841465	495.50418	0.9455992	0.008432148
5.8439822	497.38651	0.86032897	0.0084304623
5.8464994	494.98029	0.42906284	0.0084290132
5.8490167	509.36618	1.4840215	0.0084275641
5.8515344	512.99561	1.3449785	0.0084258784
5.8540516	506.45441	1.1042936	0.0084244292
5.8565688	504.01807	1.1692976	0.0084229801
5.859086	500.6553	1.0236869	0.0084213251
5.8616037	502.39545	0.99712735	0.0084198751
5.864121	501.95609	0.95503938	0.0084184259
5.8666382	503.47482	1.0907483	0.0084169768
5.8691554	502.46988	1.0330993	0.0084153218
5.8716731	504.18396	1.1876215	0.0084138727
5.8741903	501.40244	1.0708388	0.008412187
5.8767076	503.61694	1.1788833	0.0084107677
5.8792248	502.51263	1.1494	0.0084092878
5.881742	500.3689	1.0048836	0.0084076328
5.8842597	498.6402	0.9143582	0.0084061837
5.8867769	496.51352	1.0698289	0.0084047345
5.8892941	498.37946	1.0332326	0.0084030489
5.8918114	499.35159	1.4695827	0.0084015997
5.8943291	499.22974	1.1993997	0.0084001804
5.8968463	499.76297	1.5221341	0.0083987312
5.8993635	499.83475	1.0856405	0.0083972821
5.9018807	497.56168	1.1764947	0.0083956271
5.904398	496.11542	0.98244292	0.0083941473
5.9069157	497.02759	1.0781536	0.0083927289
5.9094329	499.80933	0.98078179	0.0083910432
5.9119501	497.54092	0.94998425	0.0083895931
5.9144673	498.50336	1.0367041	0.008388144
5.916985	495.59909	0.92744082	0.0083864583
5.9195023	497.19208	0.95890123	0.0083850399
5.9220195	495.64398	0.94762313	0.0083833234
5.9245367	498.59906	1.0236316	0.008381905
5.9270539	499.45068	0.91086447	0.0083804559
5.9295716	495.83469	0.91257799	0.0083790068
5.9320889	496.36661	0.98496461	0.0083773201
5.9346061	496.14215	1.0564086	0.0083759017
5.9371233	500.11169	1.031888	0.0083744526
5.939641	494.93912	1.0018842	0.0083730035
5.9421582	497.05893	1.0104508	0.0083713178
5.9446754	496.27847	0.93996096	0.0083698984
5.9471927	497.77484	0.99417847	0.0083684195
5.9497099	494.42551	0.95989913	0.0083667636
5.9522276	496.49545	1.0524689	0.0083653145
5.9547448	497.35611	1.0064956	0.0083636595
5.957262	495.83301	0.94565123	0.0083619431
5.9597793	494.4725	1.02511	0.0083604939
5.962297	495.3479	1.0161932	0.0083590755
5.9648142	494.16064	0.87296802	0.0083573898
5.9673314	493.90051	0.99619007	0.0083559398
5.9698486	496.39474	0.96318585	0.0083544906
5.9723659	496.01355	0.90911245	0.0083528357
5.9748836	494.74533	1.6396456	0.0083513558
5.9774008	494.84766	1.0999278	0.0083499374
5.979918	493.40115	0.94616103	0.0083484882
5.9824352	495.10321	0.8810699	0.0083468324
5.9849529	494.47778	0.93210429	0.0083453525
5.9874701	495.34509	0.97498488	0.0083439341
5.9899874	493.67551	0.86707944	0.0083422484
5.9925046	496.29327	0.95838553	0.0083407992
5.9950218	492.45096	0.91288531	0.0083391136
5.9975395	494.05084	0.89374322	0.0083376942
6.0000567	495.42578	0.9328348	0.0083359787
6.002574	495.9213	1.0143362	0.0083345594
6.0050912	495.01181	0.92564374	0.0083331103
6.0076089	492.06638	0.88696426	0.0083316611
6.0101261	491.25916	0.7722345	0.0083297389
6.0126433	494.15186	0.8806628	0.0083282897
6.0151606	492.08649	0.94473857	0.0083268713
6.0176783	493.41434	0.85386091	0.0083253914
6.0201955	496.29932	1.0474112	0.0083237356
6.0227127	495.43521	0.89290679	0.0083222864
6.0252299	493.7782	1.0009053	0.0083206007
6.0277472	492.69696	0.95111859	0.0083191516
6.0302649	492.28937	0.89642864	0.0083174966
6.0327821	492.35693	0.90264887	0.0083160168
6.0352993	496.97714	1.8459362	0.0083143618
6.0378165	493.19138	1.1129066	0.0083129127
6.0403342	492.05862	1.0161566	0.0083114933
6.0428514	494.12473	0.87225872	0.0083098076
6.0453687	496.57224	1.0497406	0.0083083278
6.0478859	495.03964	0.9362759	0.0083066728
6.0504031	499.15793	1.0945653	0.0083052237
6.0529208	506.55432	1.4086366	0.0083037745
6.055438	529.90387	2.9969015	0.0083023254
6.0579553	588.55066	7.5993781	0.0083006397
6.0604725	782.94543	34.958153	0.0082989838
6.0629902	1122.5621	90.143501	0.0082975347
6.0655074	908.82654	42.166351	0.008295849
6.0680246	765.74207	27.043623	0.0082943998
6.0705419	646.04645	8.6871653	0.0082929507
6.0730591	573.2168	5.7984204	0.008291265
6.0755768	541.17139	3.8031731	0.0082898466
6.078094	519.16553	2.0855582	0.0082881609
6.0806112	501.81638	1.0679306	0.0082867108
6.0831285	494.10114	0.96602917	0.0082850251
6.0856462	492.88913	1.0443611	0.0082836067
6.0881634	493.81723	1.2708839	0.008281921
6.0906806	491.8624	0.9940871	0.0082804412
6.0931978	489.1817	0.95509094	0.0082787862
6.095715	492.1539	0.9539839	0.0082773371
6.0982327	492.98178	0.88455415	0.0082759177
6.10075	493.4498	0.95663506	0.0082742022
6.1032672	492.25751	0.94685978	0.0082727829
6.1057844	492.32373	0.9742794	0.0082710665
6.1083021	489.82108	0.95663047	0.0082696481
6.1108193	490.59457	0.9347685	0.0082679624
6.1133366	493.75919	0.91829753	0.0082662767
6.1158538	492.26465	0.90492576	0.0082648275
6.118371	493.85016	1.1381301	0.0082631726
6.1208887	491.72269	0.96875626	0.0082617225
6.1234059	490.9986	0.97119272	0.0082600368
6.1259232	491.36813	0.97304738	0.0082585877
6.1284404	491.9473	0.91562951	0.0082571385
6.1309581	490.26053	0.90559626	0.0082554836
6.1334753	489.84518	0.97340637	0.0082540344
6.1359925	492.36938	0.90253854	0.0082523488
6.1385098	491.08081	0.93200183	0.0082508996
6.141027	489.12314	1.0472071	0.0082492139
6.1435447	493.53406	1.0938658	0.0082477638
6.1460619	488.84503	0.91430181	0.0082460782
6.1485791	490.7182	1.0219926	0.008244629
6.1510963	491.53244	0.96024638	0.0082429741
6.153614	491.2236	0.93456268	0.0082414942
6.1561313	492.50806	1.0467902	0.0082398392
6.1586485	493.2731	1.2029979	0.0082381535
6.1611657	497.6582	1.5401379	0.0082367044
6.1636834	500.86163	2.5358448	0.0082350485
6.1662006	511.03397	6.4000378	0.0082335994
6.1687179	567.34521	32.560371	0.0082318839
6.1712351	740.43951	138.79308	0.0082304645
6.1737523	671.61267	95.122955	0.0082287788
6.17627	565.50128	31.394371	0.0082273297
6.1787872	520.27917	10.821115	0.0082258806
6.1813045	511.43387	7.8602333	0.0082241949
6.1838217	502.12167	3.0756464	0.0082225399
6.1863394	494.55048	1.4068626	0.0082210898
6.1888566	491.99701	1.0435805	0.0082194041
6.1913738	490.77573	0.92826223	0.0082179857
6.193891	492.99756	0.94673294	0.0082162693
6.1964083	490.21631	0.91779494	0.0082148509
6.198926	491.00577	0.97023022	0.0082131345
6.2014432	489.15945	0.96582747	0.0082114795
6.2039604	490.16617	0.95871288	0.0082100304
6.2064776	490.51389	0.97976577	0.0082083447
6.2089953	491.19012	0.89689201	0.0082068956
6.2115126	491.14957	0.98558992	0.0082052099
6.2140298	492.07635	0.96129465	0.008203554
6.216547	489.32901	0.87999249	0.0082023414
6.2190642	491.92612	1.0073738	0.0082006557
6.2215819	493.2663	0.92771304	0.0081990007
6.2240992	491.13931	0.83246821	0.0081975209
6.2266164	491.37772	0.94829792	0.0081958352
6.2291336	496.67307	0.97765481	0.0081944158
6.2316513	497.61011	0.91719592	0.0081924936
6.2341685	509.40115	1.1100944	0.0081910444
6.2366858	525.10809	1.231532	0.0081895953
6.239203	571.80426	3.220341	0.0081879096
6.2417202	736.37006	14.794874	0.0081864605
6.2442379	1390.3574	117.3763	0.0081848055
6.2467551	1823.9357	130.1169	0.0081831198
6.2492723	1704.8894	135.68709	0.0081816707
6.2517896	1427.8547	69.624069	0.008179985
6.2543073	1304.2523	38.942772	0.0081785358
6.2568245	1151.3644	32.942978	0.0081768502
6.2593417	925.94067	21.469786	0.0081754001
6.2618589	814.85199	19.012371	0.0081737144
6.2643762	833.05396	84.080177	0.0081720594
6.2668939	630.33698	25.280037	0.0081706103
6.2694111	534.3963	4.1962523	0.008168688
6.2719283	508.45099	1.5419208	0.0081672389
6.2744455	497.69479	1.0277302	0.0081655532
6.2769632	494.99677	0.92361438	0.0081643406
6.2794805	489.16275	0.8678354	0.0081626549
6.2819977	489.44479	1.0423623	0.0081609692
6.2845149	490.40231	0.87752438	0.0081592835
6.2870326	489.69724	1.1705154	0.0081578642
6.2895498	489.92715	0.96827078	0.0081561785
6.2920671	486.85397	0.88701892	0.0081544928
6.2945843	486.33682	1.0261084	0.0081530437
6.2971015	487.8461	0.91370124	0.008151358
6.2996192	486.70206	0.93678266	0.0081499396
6.3021364	487.62442	0.88609022	0.0081482539
6.3046536	486.83923	0.99497062	0.0081465682
6.3071709	487.55905	0.92013258	0.0081451181
6.3096886	487.68607	0.93127149	0.0081434324
6.3122058	488.04886	0.95747513	0.0081417775
6.314723	484.61707	0.94521207	0.0081400918
6.3172402	485.21921	0.8958028	0.0081386426
6.3197575	486.64557	1.0319612	0.0081371935
6.3222752	486.07886	0.99796981	0.0081355078
6.3247924	484.31195	0.97557282	0.0081340587
6.3273096	480.96429	0.98018837	0.0081324028
6.3298268	483.06647	0.98899847	0.0081307171
6.3323445	483.68335	0.90754455	0.0081290314
6.3348618	483.61673	0.9475702	0.0081273457
6.337379	485.70056	1.2272426	0.0081258966
6.3398962	484.69577	1.0133374	0.0081242109
6.3424134	486.16339	0.9805516	0.0081227925
6.3449311	485.05679	0.96309429	0.008121076
6.3474483	484.49738	1.0422903	0.0081196269
6.3499656	487.78967	1.0817479	0.0081179719
6.3524828	485.79468	0.9920997	0.0081162862
6.3550005	484.14325	1.0907897	0.0081146006
6.3575177	484.02618	0.94106013	0.0081129149
6.3600349	485.27878	0.91308945	0.0081114955
6.3625522	487.79926	0.88215005	0.0081097791
6.3650694	484.332	1.0811428	0.0081083607
6.3675871	484.23834	0.95321852	0.0081066443
6.3701043	484.51642	0.97820407	0.0081052259
6.3726215	484.91644	0.93837643	0.0081035402
6.3751388	485.02142	0.9427076	0.0081018545
6.3776565	484.62775	0.98382008	0.0081001688
6.3801737	484.67258	1.0195372	0.0080985129
6.3826909	483.65286	1.0437527	0.0080970339
6.3852081	484.91779	0.84763759	0.0080956146
6.3877254	483.86819	0.87440372	0.0080936924
6.3902431	484.82828	1.0203182	0.0080922432
6.3927603	484.20822	0.92252636	0.0080905575
6.3952775	485.50891	0.91204464	0.0080888718
6.3977947	487.44977	1.0897316	0.0080871861
6.4003124	484.93707	1.0588096	0.008085737
6.4028296	487.79324	0.98834634	0.008084082
6.4053469	487.36444	0.94413024	0.0080826329
6.4078641	489.16089	1.0161982	0.0080809472
6.4103813	490.14786	1.1102563	0.0080792606
6.412899	492.34387	1.0305929	0.0080776056
6.4154162	500.56424	0.93951857	0.0080761565
6.4179335	519.12744	1.9422507	0.0080744708
6.4204507	566.81091	3.8506112	0.0080727851
6.4229684	748.74841	24.017881	0.008071336
6.4254856	1075.2661	58.324516	0.0080694137
6.4280028	1063.7494	30.013067	0.0080679646
6.4305201	1175.8438	33.823597	0.0080663096
6.4330378	1332.5197	64.457542	0.0080648595
6.435555	1429.9062	133.5533	0.0080631739
6.4380722	1034.1526	67.281357	0.0080617247
6.4405894	782.66364	15.667402	0.0080597727
6.4431067	703.78864	17.872679	0.0080583533
6.4456244	605.85864	8.8828659	0.0080566676
6.4481416	537.56335	3.3189688	0.0080549819
6.4506588	507.03217	1.2074045	0.0080532962
6.453176	494.63855	0.95909441	0.0080516106
6.4556937	490.81799	1.0155861	0.0080501921
6.4582109	487.57455	1.015771	0.0080485065
6.4607282	487.82922	1.0084666	0.0080470573
6.4632454	484.20743	1.1130388	0.0080451351
6.4657626	483.8689	0.9423579	0.0080436859
6.4682803	484.51816	0.92151314	0.0080420002
6.4707975	483.16568	0.97477216	0.0080403145
6.4733148	484.078	0.97835547	0.0080388645
6.475832	483.20691	0.97021407	0.0080372095
6.4783497	486.5593	1.1106787	0.0080354931
6.4808669	484.34793	1.0062892	0.0080340747
6.4833841	483.38269	1.0609475	0.0080321524
6.4859014	485.8472	2.2993653	0.0080309398
6.4884186	482.05035	0.97128338	0.0080292542
6.4909363	483.22958	0.94102407	0.0080273319
6.4934535	478.45493	1.0066806	0.0080259126
6.4959707	481.19974	0.86695379	0.0080241971
6.4984879	481.17123	0.94043458	0.0080225412
6.5010056	481.09375	0.97237861	0.0080208555
6.5035229	481.18439	0.9036693	0.0080191698
6.5060401	479.71622	0.97033602	0.0080174841
6.5085573	482.40619	0.96818715	0.008016035
6.5110745	482.75229	0.99433041	0.0080145858
6.5135922	480.52292	0.94292605	0.0080126636
6.5161095	481.58173	0.93355584	0.0080110086
6.5186267	479.96356	0.91395408	0.0080095595
6.5211439	481.93561	1.0389152	0.0080081103
6.5236616	480.83746	0.93591779	0.0080061881
6.5261788	482.21472	0.98781747	0.0080047389
6.5286961	479.68369	0.89960796	0.0080028167
6.5312133	480.4993	1.0106865	0.0080013974
6.5337305	479.65506	1.0442635	0.0079997117
6.5362482	479.66272	1.0029151	0.0079982625
6.5387654	478.83972	0.97324073	0.0079965461
6.5412827	481.66309	0.8081609	0.0079946546
6.5437999	480.38849	0.90718234	0.0079931747
6.5463176	479.59097	0.96770281	0.0079915198
6.5488348	480.14975	1.0121611	0.0079898341
6.551352	479.07974	0.9413951	0.0079884157
6.5538692	481.20837	1.028753	0.0079866992
6.5563865	481.00244	1.0396743	0.0079850443
6.5589042	479.90384	0.97304487	0.0079833278
6.5614214	479.46732	0.91887182	0.0079816421
6.5639386	479.63333	1.0079746	0.0079799863
6.5664558	480.40738	0.98992604	0.0079785371
6.5689735	482.19537	0.99522305	0.0079768514
6.5714908	479.95035	0.99395776	0.0079751965
6.574008	480.06995	1.0868248	0.0079735108
6.5765252	483.11823	0.94670045	0.0079720616
6.5790429	479.13806	0.94548768	0.0079703759
6.5815601	480.4707	1.0228353	0.0079684537
6.5840774	482.71622	0.88682222	0.0079670046
6.5865946	480.56821	0.84224844	0.0079653189
6.5891118	483.63589	1.0309364	0.0079636332
6.5916295	486.53241	1.0961533	0.007962184
6.5941467	498.77905	2.6570637	0.0079602916
6.596664	530.67957	9.9883041	0.0079585761
6.5991812	615.42822	30.517538	0.0079571567
6.6016989	676.65375	16.383986	0.0079554711
6.6042161	709.59418	15.036269	0.0079537854
6.6067333	771.73938	27.373913	0.0079520997
6.6092505	734.03906	14.267808	0.0079506505
6.6117678	769.94702	32.661343	0.0079487283
6.6142855	734.46625	22.991459	0.0079470733
6.6168027	658.77997	18.512981	0.0079456242
6.6193199	600.73907	12.691723	0.0079439385
6.6218371	537.62115	3.3881731	0.0079422221
6.6243548	504.62357	1.8282896	0.0079405671
6.6268721	492.49896	1.2012192	0.0079388814
6.6293893	482.2164	0.91571498	0.0079372255
6.6319065	480.75656	1.0463235	0.00793551
6.6344237	480.69144	1.0211979	0.0079338243
6.6369414	479.77728	1.0668517	0.007932405
6.6394587	477.7699	0.9801265	0.0079306886
6.6419759	477.79633	0.94861746	0.0079290029
6.6444931	478.06104	0.97027886	0.0079273172
6.6470108	477.82156	0.9998861	0.0079256622
6.649528	476.87854	1.0884616	0.0079242131
6.6520452	478.164	0.90123296	0.0079225274
6.6545625	477.93243	0.88007408	0.0079208417
6.6570797	477.07605	1.0310358	0.007919156
6.6595974	476.59787	0.99162042	0.007917501
6.6621146	478.91495	0.98620498	0.0079157846
6.6646318	478.58472	0.97872788	0.0079140989
6.6671491	477.82953	0.9765659	0.0079126796
6.6696668	479.14471	0.88987732	0.0079107275
6.672184	476.76062	0.95513242	0.0079090726
6.6747012	477.22934	0.97693723	0.0079076532
6.6772184	475.29645	0.94200152	0.0079059368
6.6797357	476.17184	0.96351355	0.0079042511
6.6822534	477.33118	0.88163942	0.0079025961
6.6847706	475.69284	0.96216565	0.0079008797
6.6872878	475.78604	0.96530807	0.0078992248
6.689805	476.79056	0.88660276	0.0078975391
6.6923227	475.237	0.90922016	0.0078960899
6.69484	476.90274	0.96294874	0.0078941677
6.6973572	476.43039	0.92499346	0.0078927185
6.6998744	475.12256	0.98316395	0.0078907963
6.7023916	474.50165	0.84648287	0.0078891106
6.7049093	473.91376	0.99380541	0.0078876615
6.7074265	475.66309	0.94106013	0.0078860056
6.7099438	477.86356	0.8691501	0.0078842901
6.712461	477.55423	0.90642959	0.0078826342
6.7149787	475.60648	0.92651957	0.0078809187
6.7174959	474.642	0.90085536	0.0078792628
6.7200131	475.40887	0.94029832	0.0078775771
6.7225304	476.7988	0.91937995	0.0078758914
6.7250481	476.69916	1.0100166	0.0078744423
6.7275653	476.50876	0.91013891	0.0078725507
6.7300825	476.35571	0.95631814	0.0078708343
6.7325997	476.86856	1.0848814	0.0078691794
6.735117	477.4216	0.99094868	0.0078677302
6.7376347	475.67383	0.91399789	0.007865808
6.7401519	477.57797	0.95829636	0.0078643588
6.7426691	475.93268	0.92422158	0.0078624366
6.7451863	477.33777	0.92443699	0.0078609874
6.747704	477.15997	0.95758069	0.0078590652
6.7502213	476.38004	0.91663378	0.0078576459
6.7527385	477.50195	0.91993272	0.0078559304
6.7552557	478.7861	0.94926548	0.0078542447
6.7577729	480.19525	0.93502223	0.0078525888
6.7602906	482.55286	0.9363265	0.0078506665
6.7628078	483.58347	0.96451879	0.0078492174
6.7653251	493.47348	1.210488	0.0078475317
6.7678423	519.34723	4.0293093	0.007845846
6.77036	652.97253	35.995178	0.0078441603
6.7728772	742.86749	44.459263	0.0078424746
6.7753944	745.60925	21.233772	0.0078408197
6.7779117	894.82007	52.252674	0.007839134
6.7804289	959.09247	56.540699	0.0078376848
6.7829466	1348.1738	268.25519	0.0078357626
6.7854638	1301.9274	252.30153	0.0078340461
6.787981	739.66937	37.097565	0.0078323605
6.7904983	702.49628	48.3195	0.0078307055
6.793016	588.09314	16.61965	0.0078292564
6.7955332	516.87494	3.2240136	0.0078273341
6.7980504	488.82217	1.1454695	0.0078256484
6.8005676	481.71307	0.98896593	0.0078241993
6.8030849	477.5412	0.95784563	0.0078223068
6.8056026	477.76541	0.8525461	0.0078206211
6.8081198	476.94196	0.96248269	0.0078189354
6.810637	474.9747	0.95068389	0.0078172497
6.8131542	476.1749	0.9028396	0.0078158006
6.8156719	474.70767	0.9331252	0.0078141149
6.8181891	477.26791	1.0345899	0.00781246
6.8207064	477.33261	0.93721461	0.0078107435
6.8232236	474.63074	0.98403621	0.0078090886
6.8257408	473.99228	0.90329105	0.0078071663
6.8282585	473.71643	0.95754403	0.0078057167
6.8307757	472.65207	0.83500665	0.0078040008
6.833293	475.97498	0.9323312	0.0078021092
6.8358102	474.25131	0.89542711	0.0078004235
6.8383279	475.25351	0.9763478	0.0077989739
6.8408451	476.64743	0.98479891	0.0077972882
6.8433623	474.90933	1.0238196	0.007795366
6.8458796	474.91537	0.96719646	0.0077936803
6.8483973	474.75809	1.0121633	0.0077922312
6.8509145	477.10419	0.95672232	0.0077903089
6.8534317	474.10437	0.95745164	0.007788654
6.8559489	473.2168	0.92950505	0.0077869683
6.8584661	475.50647	0.99139094	0.0077852826
6.8609838	473.70572	0.95828867	0.0077835969
6.8635011	474.8125	0.93800694	0.0077821473
6.8660183	476.53992	0.9255693	0.007780225
6.8685355	475.14996	0.97335756	0.0077785393
6.8710532	472.88489	0.9146536	0.0077768536
6.8735704	474.66852	1.0151931	0.0077751679
6.8760877	473.19019	0.94050723	0.0077734822
6.8786049	475.81204	0.92390835	0.0077717965
6.8811221	473.52081	0.973948	0.0077701416
6.8836398	475.36111	0.88378376	0.0077684559
6.886157	474.48889	0.93240392	0.0077667697
6.8886743	474.94467	0.98953837	0.0077648479
6.8911915	473.83774	0.93006182	0.0077631623
6.8937092	473.48895	0.8886565	0.0077617127
6.8962264	473.65442	0.8624019	0.007760027
6.8987436	474.85455	0.91789532	0.0077583413
6.9012609	476.26324	1.0449657	0.0077566556
6.9037781	474.44244	1.0293297	0.0077547333
6.9062958	473.11975	1.0142436	0.0077532842
6.908813	475.76724	1.020884	0.0077515985
6.9113302	475.17984	1.1246995	0.0077496762
6.9138474	475.54453	0.93411273	0.0077482574
6.9163651	477.72882	0.8857916	0.0077463356
6.9188824	476.785	0.98052263	0.0077446499
6.9213996	477.59756	0.91719049	0.0077429945
6.9239168	479.20218	0.95040148	0.007741278
6.926434	482.17557	0.96406931	0.0077395923
6.9289517	490.3364	1.0070831	0.0077379374
6.931469	502.09308	1.1725272	0.0077359849
6.9339862	533.89447	2.5655921	0.0077342992
6.9365034	641.87457	7.9416475	0.0077326135
6.9390211	901.51172	41.039898	0.0077311639
6.9415383	1088.9658	43.653835	0.0077295089
6.9440556	1145.6434	36.036564	0.0077278232
6.9465728	1230.2422	50.887711	0.007725901
6.94909	1273.0297	93.929169	0.0077242153
6.9516077	1494.9265	216.76385	0.0077225296
6.9541249	872.61664	23.295916	0.0077208439
6.9566422	835.29163	48.803131	0.0077191885
6.9591594	964.48737	101.36467	0.0077175028
6.9616771	628.7373	24.257824	0.0077158171
6.9641943	530.72211	4.0142426	0.0077138948
6.9667115	493.99127	0.96370155	0.0077121789
6.9692287	483.31583	1.1161029	0.0077105234
6.971746	477.01575	2.2041562	0.0077090743
6.9742637	470.08221	3.2849045	0.0077073886
6.9767809	473.91568	6.6222272	0.0077054664
6.9792981	479.31915	14.739797	0.0077037807
6.9818153	452.53806	8.8713017	0.007702095
